0.000000 106.000000
0.001000 106.000000
0.002000 106.000000
0.003000 86.000000
0.004000 96.000000
0.005000 106.000000
0.006000 96.000000
0.007000 96.000000
0.008000 116.000000
0.009000 101.000000
0.010000 86.000000
0.011000 106.000000
0.012000 86.000000
0.013000 77.000000
0.014000 91.000000
0.015000 96.000000
0.016000 111.000000
0.017000 106.000000
0.018000 91.000000
0.019000 96.000000
0.020000 77.000000
0.021000 81.000000
0.022000 91.000000
0.023000 101.000000
0.024000 111.000000
0.025000 106.000000
0.026000 106.000000
0.027000 96.000000
0.028000 77.000000
0.029000 72.000000
0.030000 86.000000
0.031000 81.000000
0.032000 101.000000
0.033000 116.000000
0.034000 111.000000
0.035000 111.000000
0.036000 106.000000
0.037000 91.000000
0.038000 96.000000
0.039000 96.000000
0.040000 111.000000
0.041000 135.000000
0.042000 125.000000
0.043000 111.000000
0.044000 116.000000
0.045000 106.000000
0.046000 116.000000
0.047000 125.000000
0.048000 135.000000
0.049000 145.000000
0.050000 140.000000
0.051000 140.000000
0.052000 135.000000
0.053000 116.000000
0.054000 106.000000
0.055000 101.000000
0.056000 130.000000
0.057000 160.000000
0.058000 164.000000
0.059000 160.000000
0.060000 150.000000
0.061000 150.000000
0.062000 150.000000
0.063000 135.000000
0.064000 135.000000
0.065000 140.000000
0.066000 164.000000
0.067000 160.000000
0.068000 150.000000
0.069000 135.000000
0.070000 121.000000
0.071000 116.000000
0.072000 116.000000
0.073000 101.000000
0.074000 86.000000
0.075000 96.000000
0.076000 96.000000
0.077000 86.000000
0.078000 86.000000
0.079000 77.000000
0.080000 86.000000
0.081000 96.000000
0.082000 106.000000
0.083000 96.000000
0.084000 96.000000
0.085000 106.000000
0.086000 81.000000
0.087000 77.000000
0.088000 86.000000
0.089000 86.000000
0.090000 96.000000
0.091000 111.000000
0.092000 96.000000
0.093000 81.000000
0.094000 86.000000
0.095000 77.000000
0.096000 77.000000
0.097000 77.000000
0.098000 81.000000
0.099000 96.000000
0.100000 91.000000
0.101000 86.000000
0.102000 77.000000
0.103000 67.000000
0.104000 77.000000
0.105000 72.000000
0.106000 81.000000
0.107000 86.000000
0.108000 96.000000
0.109000 91.000000
0.110000 86.000000
0.111000 77.000000
0.112000 57.000000
0.113000 67.000000
0.114000 81.000000
0.115000 91.000000
0.116000 96.000000
0.117000 96.000000
0.118000 91.000000
0.119000 86.000000
0.120000 77.000000
0.121000 62.000000
0.122000 77.000000
0.123000 91.000000
0.124000 96.000000
0.125000 96.000000
0.126000 91.000000
0.127000 86.000000
0.128000 77.000000
0.129000 77.000000
0.130000 77.000000
0.131000 72.000000
0.132000 86.000000
0.133000 106.000000
0.134000 101.000000
0.135000 91.000000
0.136000 77.000000
0.137000 67.000000
0.138000 77.000000
0.139000 77.000000
0.140000 86.000000
0.141000 97.000000
0.142000 87.000000
0.143000 63.000000
0.144000 58.000000
0.145000 68.000000
0.146000 78.000000
0.147000 87.000000
0.148000 102.000000
0.149000 126.000000
0.150000 136.000000
0.151000 156.000000
0.152000 185.000000
0.153000 200.000000
0.154000 239.000000
0.155000 287.000000
0.156000 312.000000
0.157000 346.000000
0.158000 370.000000
0.159000 351.000000
0.160000 326.000000
0.161000 312.000000
0.162000 326.000000
0.163000 322.000000
0.164000 322.000000
0.165000 287.000000
0.166000 258.000000
0.167000 224.000000
0.168000 165.000000
0.169000 131.000000
0.170000 92.000000
0.171000 53.000000
0.172000 19.000000
0.173000 0.000000
0.174000 -34.000000
0.175000 -68.000000
0.176000 -107.000000
0.177000 -146.000000
0.178000 -161.000000
0.179000 -165.000000
0.180000 -185.000000
0.181000 -190.000000
0.182000 -190.000000
0.183000 -185.000000
0.184000 -185.000000
0.185000 -195.000000
0.186000 -195.000000
0.187000 -170.000000
0.188000 -150.000000
0.189000 -121.000000
0.190000 -72.000000
0.191000 -38.000000
0.192000 -8.000000
0.193000 1.000000
0.194000 1.000000
0.195000 20.000000
0.196000 30.000000
0.197000 40.000000
0.198000 83.000000
0.199000 98.000000
0.200000 108.000000
0.201000 103.000000
0.202000 93.000000
0.203000 103.000000
0.204000 88.000000
0.205000 88.000000
0.206000 103.000000
0.207000 113.000000
0.208000 123.000000
0.209000 123.000000
0.210000 113.000000
0.211000 98.000000
0.212000 118.000000
0.213000 98.000000
0.214000 103.000000
0.215000 127.000000
0.216000 123.000000
0.217000 118.000000
0.218000 132.000000
0.219000 123.000000
0.220000 98.000000
0.221000 108.000000
0.222000 123.000000
0.223000 123.000000
0.224000 127.000000
0.225000 127.000000
0.226000 127.000000
0.227000 118.000000
0.228000 123.000000
0.229000 118.000000
0.230000 118.000000
0.231000 118.000000
0.232000 118.000000
0.233000 142.000000
0.234000 142.000000
0.235000 113.000000
0.236000 118.000000
0.237000 113.000000
0.238000 108.000000
0.239000 118.000000
0.240000 132.000000
0.241000 132.000000
0.242000 142.000000
0.243000 137.000000
0.244000 123.000000
0.245000 108.000000
0.246000 118.000000
0.247000 123.000000
0.248000 137.000000
0.249000 147.000000
0.250000 147.000000
0.251000 147.000000
0.252000 137.000000
0.253000 118.000000
0.254000 127.000000
0.255000 132.000000
0.256000 137.000000
0.257000 147.000000
0.258000 152.000000
0.259000 152.000000
0.260000 137.000000
0.261000 123.000000
0.262000 127.000000
0.263000 137.000000
0.264000 142.000000
0.265000 147.000000
0.266000 152.000000
0.267000 152.000000
0.268000 162.000000
0.269000 157.000000
0.270000 142.000000
0.271000 147.000000
0.272000 157.000000
0.273000 166.000000
0.274000 176.000000
0.275000 166.000000
0.276000 171.000000
0.277000 176.000000
0.278000 162.000000
0.279000 157.000000
0.280000 166.000000
0.281000 176.000000
0.282000 182.000000
0.283000 202.000000
0.284000 206.000000
0.285000 202.000000
0.286000 197.000000
0.287000 187.000000
0.288000 187.000000
0.289000 211.000000
0.290000 216.000000
0.291000 226.000000
0.292000 226.000000
0.293000 211.000000
0.294000 216.000000
0.295000 216.000000
0.296000 206.000000
0.297000 216.000000
0.298000 231.000000
0.299000 231.000000
0.300000 250.000000
0.301000 246.000000
0.302000 236.000000
0.303000 216.000000
0.304000 221.000000
0.305000 216.000000
0.306000 226.000000
0.307000 246.000000
0.308000 250.000000
0.309000 255.000000
0.310000 246.000000
0.311000 241.000000
0.312000 231.000000
0.313000 221.000000
0.314000 221.000000
0.315000 246.000000
0.316000 246.000000
0.317000 236.000000
0.318000 231.000000
0.319000 221.000000
0.320000 202.000000
0.321000 197.000000
0.322000 192.000000
0.323000 187.000000
0.324000 197.000000
0.325000 197.000000
0.326000 197.000000
0.327000 167.000000
0.328000 148.000000
0.329000 158.000000
0.330000 153.000000
0.331000 153.000000
0.332000 158.000000
0.333000 148.000000
0.334000 143.000000
0.335000 158.000000
0.336000 128.000000
0.337000 119.000000
0.338000 119.000000
0.339000 109.000000
0.340000 119.000000
0.341000 138.000000
0.342000 124.000000
0.343000 124.000000
0.344000 119.000000
0.345000 104.000000
0.346000 109.000000
0.347000 104.000000
0.348000 114.000000
0.349000 124.000000
0.350000 114.000000
0.351000 114.000000
0.352000 109.000000
0.353000 99.000000
0.354000 94.000000
0.355000 104.000000
0.356000 104.000000
0.357000 104.000000
0.358000 119.000000
0.359000 128.000000
0.360000 109.000000
0.361000 104.000000
0.362000 89.000000
0.363000 89.000000
0.364000 104.000000
0.365000 109.000000
0.366000 109.000000
0.367000 109.000000
0.368000 104.000000
0.369000 99.000000
0.370000 99.000000
0.371000 99.000000
0.372000 89.000000
0.373000 94.000000
0.374000 119.000000
0.375000 119.000000
0.376000 109.000000
0.377000 94.000000
0.378000 99.000000
0.379000 94.000000
0.380000 94.000000
0.381000 94.000000
0.382000 109.000000
0.383000 124.000000
0.384000 119.000000
0.385000 109.000000
0.386000 104.000000
0.387000 89.000000
0.388000 89.000000
0.389000 109.000000
0.390000 109.000000
0.391000 119.000000
0.392000 124.000000
0.393000 124.000000
0.394000 114.000000
0.395000 94.000000
0.396000 94.000000
0.397000 99.000000
0.398000 109.000000
0.399000 114.000000
0.400000 133.000000
0.401000 128.000000
0.402000 114.000000
0.403000 114.000000
0.404000 109.000000
0.405000 109.000000
0.406000 124.000000
0.407000 128.000000
0.408000 133.000000
0.409000 133.000000
0.410000 128.000000
0.411000 114.000000
0.412000 109.000000
0.413000 109.000000
0.414000 119.000000
0.415000 124.000000
0.416000 143.000000
0.417000 138.000000
0.418000 133.000000
0.419000 124.000000
0.420000 119.000000
0.421000 109.000000
0.422000 109.000000
0.423000 129.000000
0.424000 144.000000
0.425000 134.000000
0.426000 120.000000
0.427000 120.000000
0.428000 115.000000
0.429000 120.000000
0.430000 120.000000
0.431000 125.000000
0.432000 139.000000
0.433000 149.000000
0.434000 139.000000
0.435000 134.000000
0.436000 120.000000
0.437000 110.000000
0.438000 115.000000
0.439000 115.000000
0.440000 115.000000
0.441000 139.000000
0.442000 139.000000
0.443000 134.000000
0.444000 125.000000
0.445000 120.000000
0.446000 115.000000
0.447000 120.000000
0.448000 129.000000
0.449000 134.000000
0.450000 139.000000
0.451000 144.000000
0.452000 120.000000
0.453000 110.000000
0.454000 110.000000
0.455000 105.000000
0.456000 129.000000
0.457000 129.000000
0.458000 125.000000
0.459000 134.000000
0.460000 125.000000
0.461000 120.000000
0.462000 110.000000
0.463000 110.000000
0.464000 125.000000
0.465000 125.000000
0.466000 134.000000
0.467000 134.000000
0.468000 120.000000
0.469000 110.000000
0.470000 111.000000
0.471000 106.000000
0.472000 106.000000
0.473000 86.000000
0.474000 96.000000
0.475000 106.000000
0.476000 96.000000
0.477000 96.000000
0.478000 116.000000
0.479000 101.000000
0.480000 86.000000
0.481000 106.000000
0.482000 86.000000
0.483000 77.000000
0.484000 91.000000
0.485000 96.000000
0.486000 111.000000
0.487000 106.000000
0.488000 91.000000
0.489000 96.000000
0.490000 77.000000
0.491000 81.000000
0.492000 91.000000
0.493000 101.000000
0.494000 111.000000
0.495000 106.000000
0.496000 106.000000
0.497000 96.000000
0.498000 77.000000
0.499000 72.000000
0.500000 86.000000
0.501000 81.000000
0.502000 101.000000
0.503000 116.000000
0.504000 111.000000
0.505000 111.000000
0.506000 106.000000
0.507000 91.000000
0.508000 96.000000
0.509000 96.000000
0.510000 111.000000
0.511000 135.000000
0.512000 125.000000
0.513000 111.000000
0.514000 116.000000
0.515000 106.000000
0.516000 116.000000
0.517000 125.000000
0.518000 135.000000
0.519000 145.000000
0.520000 140.000000
0.521000 140.000000
0.522000 135.000000
0.523000 116.000000
0.524000 106.000000
0.525000 101.000000
0.526000 130.000000
0.527000 160.000000
0.528000 164.000000
0.529000 160.000000
0.530000 150.000000
0.531000 150.000000
0.532000 150.000000
0.533000 135.000000
0.534000 135.000000
0.535000 140.000000
0.536000 164.000000
0.537000 160.000000
0.538000 150.000000
0.539000 135.000000
0.540000 121.000000
0.541000 116.000000
0.542000 116.000000
0.543000 101.000000
0.544000 86.000000
0.545000 96.000000
0.546000 96.000000
0.547000 86.000000
0.548000 86.000000
0.549000 77.000000
0.550000 86.000000
0.551000 96.000000
0.552000 106.000000
0.553000 96.000000
0.554000 96.000000
0.555000 106.000000
0.556000 81.000000
0.557000 77.000000
0.558000 86.000000
0.559000 86.000000
0.560000 96.000000
0.561000 111.000000
0.562000 96.000000
0.563000 81.000000
0.564000 86.000000
0.565000 77.000000
0.566000 77.000000
0.567000 77.000000
0.568000 81.000000
0.569000 96.000000
0.570000 91.000000
0.571000 86.000000
0.572000 77.000000
0.573000 67.000000
0.574000 77.000000
0.575000 72.000000
0.576000 81.000000
0.577000 86.000000
0.578000 96.000000
0.579000 91.000000
0.580000 86.000000
0.581000 77.000000
0.582000 57.000000
0.583000 67.000000
0.584000 81.000000
0.585000 91.000000
0.586000 96.000000
0.587000 96.000000
0.588000 91.000000
0.589000 86.000000
0.590000 77.000000
0.591000 62.000000
0.592000 77.000000
0.593000 91.000000
0.594000 96.000000
0.595000 96.000000
0.596000 91.000000
0.597000 86.000000
0.598000 77.000000
0.599000 77.000000
0.600000 77.000000
0.601000 72.000000
0.602000 86.000000
0.603000 106.000000
0.604000 101.000000
0.605000 91.000000
0.606000 77.000000
0.607000 67.000000
0.608000 77.000000
0.609000 77.000000
0.610000 86.000000
0.611000 97.000000
0.612000 87.000000
0.613000 63.000000
0.614000 58.000000
0.615000 68.000000
0.616000 78.000000
0.617000 87.000000
0.618000 102.000000
0.619000 126.000000
0.620000 136.000000
0.621000 156.000000
0.622000 185.000000
0.623000 200.000000
0.624000 239.000000
0.625000 287.000000
0.626000 312.000000
0.627000 346.000000
0.628000 370.000000
0.629000 351.000000
0.630000 326.000000
0.631000 312.000000
0.632000 326.000000
0.633000 322.000000
0.634000 322.000000
0.635000 287.000000
0.636000 258.000000
0.637000 224.000000
0.638000 165.000000
0.639000 131.000000
0.640000 92.000000
0.641000 53.000000
0.642000 19.000000
0.643000 0.000000
0.644000 -34.000000
0.645000 -68.000000
0.646000 -107.000000
0.647000 -146.000000
0.648000 -161.000000
0.649000 -165.000000
0.650000 -185.000000
0.651000 -190.000000
0.652000 -190.000000
0.653000 -185.000000
0.654000 -185.000000
0.655000 -195.000000
0.656000 -195.000000
0.657000 -170.000000
0.658000 -150.000000
0.659000 -121.000000
0.660000 -72.000000
0.661000 -38.000000
0.662000 -8.000000
0.663000 1.000000
0.664000 1.000000
0.665000 20.000000
0.666000 30.000000
0.667000 40.000000
0.668000 83.000000
0.669000 98.000000
0.670000 108.000000
0.671000 103.000000
0.672000 93.000000
0.673000 103.000000
0.674000 88.000000
0.675000 88.000000
0.676000 103.000000
0.677000 113.000000
0.678000 123.000000
0.679000 123.000000
0.680000 113.000000
0.681000 98.000000
0.682000 118.000000
0.683000 98.000000
0.684000 103.000000
0.685000 127.000000
0.686000 123.000000
0.687000 118.000000
0.688000 132.000000
0.689000 123.000000
0.690000 98.000000
0.691000 108.000000
0.692000 123.000000
0.693000 123.000000
0.694000 127.000000
0.695000 127.000000
0.696000 127.000000
0.697000 118.000000
0.698000 123.000000
0.699000 118.000000
0.700000 118.000000
0.701000 118.000000
0.702000 118.000000
0.703000 142.000000
0.704000 142.000000
0.705000 113.000000
0.706000 118.000000
0.707000 113.000000
0.708000 108.000000
0.709000 118.000000
0.710000 132.000000
0.711000 132.000000
0.712000 142.000000
0.713000 137.000000
0.714000 123.000000
0.715000 108.000000
0.716000 118.000000
0.717000 123.000000
0.718000 137.000000
0.719000 147.000000
0.720000 147.000000
0.721000 147.000000
0.722000 137.000000
0.723000 118.000000
0.724000 127.000000
0.725000 132.000000
0.726000 137.000000
0.727000 147.000000
0.728000 152.000000
0.729000 152.000000
0.730000 137.000000
0.731000 123.000000
0.732000 127.000000
0.733000 137.000000
0.734000 142.000000
0.735000 147.000000
0.736000 152.000000
0.737000 152.000000
0.738000 162.000000
0.739000 157.000000
0.740000 142.000000
0.741000 147.000000
0.742000 157.000000
0.743000 166.000000
0.744000 176.000000
0.745000 166.000000
0.746000 171.000000
0.747000 176.000000
0.748000 162.000000
0.749000 157.000000
0.750000 166.000000
0.751000 176.000000
0.752000 182.000000
0.753000 202.000000
0.754000 206.000000
0.755000 202.000000
0.756000 197.000000
0.757000 187.000000
0.758000 187.000000
0.759000 211.000000
0.760000 216.000000
0.761000 226.000000
0.762000 226.000000
0.763000 211.000000
0.764000 216.000000
0.765000 216.000000
0.766000 206.000000
0.767000 216.000000
0.768000 231.000000
0.769000 231.000000
0.770000 250.000000
0.771000 246.000000
0.772000 236.000000
0.773000 216.000000
0.774000 221.000000
0.775000 216.000000
0.776000 226.000000
0.777000 246.000000
0.778000 250.000000
0.779000 255.000000
0.780000 246.000000
0.781000 241.000000
0.782000 231.000000
0.783000 221.000000
0.784000 221.000000
0.785000 246.000000
0.786000 246.000000
0.787000 236.000000
0.788000 231.000000
0.789000 221.000000
0.790000 202.000000
0.791000 197.000000
0.792000 192.000000
0.793000 187.000000
0.794000 197.000000
0.795000 197.000000
0.796000 197.000000
0.797000 167.000000
0.798000 148.000000
0.799000 158.000000
0.800000 153.000000
0.801000 153.000000
0.802000 158.000000
0.803000 148.000000
0.804000 143.000000
0.805000 158.000000
0.806000 128.000000
0.807000 119.000000
0.808000 119.000000
0.809000 109.000000
0.810000 119.000000
0.811000 138.000000
0.812000 124.000000
0.813000 124.000000
0.814000 119.000000
0.815000 104.000000
0.816000 109.000000
0.817000 104.000000
0.818000 114.000000
0.819000 124.000000
0.820000 114.000000
0.821000 114.000000
0.822000 109.000000
0.823000 99.000000
0.824000 94.000000
0.825000 104.000000
0.826000 104.000000
0.827000 104.000000
0.828000 119.000000
0.829000 128.000000
0.830000 109.000000
0.831000 104.000000
0.832000 89.000000
0.833000 89.000000
0.834000 104.000000
0.835000 109.000000
0.836000 109.000000
0.837000 109.000000
0.838000 104.000000
0.839000 99.000000
0.840000 99.000000
0.841000 99.000000
0.842000 89.000000
0.843000 94.000000
0.844000 119.000000
0.845000 119.000000
0.846000 109.000000
0.847000 94.000000
0.848000 99.000000
0.849000 94.000000
0.850000 94.000000
0.851000 94.000000
0.852000 109.000000
0.853000 124.000000
0.854000 119.000000
0.855000 109.000000
0.856000 104.000000
0.857000 89.000000
0.858000 89.000000
0.859000 109.000000
0.860000 109.000000
0.861000 119.000000
0.862000 124.000000
0.863000 124.000000
0.864000 114.000000
0.865000 94.000000
0.866000 94.000000
0.867000 99.000000
0.868000 109.000000
0.869000 114.000000
0.870000 133.000000
0.871000 128.000000
0.872000 114.000000
0.873000 114.000000
0.874000 109.000000
0.875000 109.000000
0.876000 124.000000
0.877000 128.000000
0.878000 133.000000
0.879000 133.000000
0.880000 128.000000
0.881000 114.000000
0.882000 109.000000
0.883000 109.000000
0.884000 119.000000
0.885000 124.000000
0.886000 143.000000
0.887000 138.000000
0.888000 133.000000
0.889000 124.000000
0.890000 119.000000
0.891000 109.000000
0.892000 109.000000
0.893000 129.000000
0.894000 144.000000
0.895000 134.000000
0.896000 120.000000
0.897000 120.000000
0.898000 115.000000
0.899000 120.000000
0.900000 120.000000
0.901000 125.000000
0.902000 139.000000
0.903000 149.000000
0.904000 139.000000
0.905000 134.000000
0.906000 120.000000
0.907000 110.000000
0.908000 115.000000
0.909000 115.000000
0.910000 115.000000
0.911000 139.000000
0.912000 139.000000
0.913000 134.000000
0.914000 125.000000
0.915000 120.000000
0.916000 115.000000
0.917000 120.000000
0.918000 129.000000
0.919000 134.000000
0.920000 139.000000
0.921000 144.000000
0.922000 120.000000
0.923000 110.000000
0.924000 110.000000
0.925000 105.000000
0.926000 129.000000
0.927000 129.000000
0.928000 125.000000
0.929000 134.000000
0.930000 125.000000
0.931000 120.000000
0.932000 110.000000
0.933000 110.000000
0.934000 125.000000
0.935000 125.000000
0.936000 134.000000
0.937000 134.000000
0.938000 120.000000
0.939000 110.000000
0.940000 111.000000
0.941000 106.000000
0.942000 106.000000
0.943000 86.000000
0.944000 96.000000
0.945000 106.000000
0.946000 96.000000
0.947000 96.000000
0.948000 116.000000
0.949000 101.000000
0.950000 86.000000
0.951000 106.000000
0.952000 86.000000
0.953000 77.000000
0.954000 91.000000
0.955000 96.000000
0.956000 111.000000
0.957000 106.000000
0.958000 91.000000
0.959000 96.000000
0.960000 77.000000
0.961000 81.000000
0.962000 91.000000
0.963000 101.000000
0.964000 111.000000
0.965000 106.000000
0.966000 106.000000
0.967000 96.000000
0.968000 77.000000
0.969000 72.000000
0.970000 86.000000
0.971000 81.000000
0.972000 101.000000
0.973000 116.000000
0.974000 111.000000
0.975000 111.000000
0.976000 106.000000
0.977000 91.000000
0.978000 96.000000
0.979000 96.000000
0.980000 111.000000
0.981000 135.000000
0.982000 125.000000
0.983000 111.000000
0.984000 116.000000
0.985000 106.000000
0.986000 116.000000
0.987000 125.000000
0.988000 135.000000
0.989000 145.000000
0.990000 140.000000
0.991000 140.000000
0.992000 135.000000
0.993000 116.000000
0.994000 106.000000
0.995000 101.000000
0.996000 130.000000
0.997000 160.000000
0.998000 164.000000
0.999000 160.000000
1.000000 150.000000
1.001000 150.000000
1.002000 150.000000
1.003000 135.000000
1.004000 135.000000
1.005000 140.000000
1.006000 164.000000
1.007000 160.000000
1.008000 150.000000
1.009000 135.000000
1.010000 121.000000
1.011000 116.000000
1.012000 116.000000
1.013000 101.000000
1.014000 86.000000
1.015000 96.000000
1.016000 96.000000
1.017000 86.000000
1.018000 86.000000
1.019000 77.000000
1.020000 86.000000
1.021000 96.000000
1.022000 106.000000
1.023000 96.000000
1.024000 96.000000
1.025000 106.000000
1.026000 81.000000
1.027000 77.000000
1.028000 86.000000
1.029000 86.000000
1.030000 96.000000
1.031000 111.000000
1.032000 96.000000
1.033000 81.000000
1.034000 86.000000
1.035000 77.000000
1.036000 77.000000
1.037000 77.000000
1.038000 81.000000
1.039000 96.000000
1.040000 91.000000
1.041000 86.000000
1.042000 77.000000
1.043000 67.000000
1.044000 77.000000
1.045000 72.000000
1.046000 81.000000
1.047000 86.000000
1.048000 96.000000
1.049000 91.000000
1.050000 86.000000
1.051000 77.000000
1.052000 57.000000
1.053000 67.000000
1.054000 81.000000
1.055000 91.000000
1.056000 96.000000
1.057000 96.000000
1.058000 91.000000
1.059000 86.000000
1.060000 77.000000
1.061000 62.000000
1.062000 77.000000
1.063000 91.000000
1.064000 96.000000
1.065000 96.000000
1.066000 91.000000
1.067000 86.000000
1.068000 77.000000
1.069000 77.000000
1.070000 77.000000
1.071000 72.000000
1.072000 86.000000
1.073000 106.000000
1.074000 101.000000
1.075000 91.000000
1.076000 77.000000
1.077000 67.000000
1.078000 77.000000
1.079000 77.000000
1.080000 86.000000
1.081000 97.000000
1.082000 87.000000
1.083000 63.000000
1.084000 58.000000
1.085000 68.000000
1.086000 78.000000
1.087000 87.000000
1.088000 102.000000
1.089000 126.000000
1.090000 136.000000
1.091000 156.000000
1.092000 185.000000
1.093000 200.000000
1.094000 239.000000
1.095000 287.000000
1.096000 312.000000
1.097000 346.000000
1.098000 370.000000
1.099000 351.000000
1.100000 326.000000
1.101000 312.000000
1.102000 326.000000
1.103000 322.000000
1.104000 322.000000
1.105000 287.000000
1.106000 258.000000
1.107000 224.000000
1.108000 165.000000
1.109000 131.000000
1.110000 92.000000
1.111000 53.000000
1.112000 19.000000
1.113000 0.000000
1.114000 -34.000000
1.115000 -68.000000
1.116000 -107.000000
1.117000 -146.000000
1.118000 -161.000000
1.119000 -165.000000
1.120000 -185.000000
1.121000 -190.000000
1.122000 -190.000000
1.123000 -185.000000
1.124000 -185.000000
1.125000 -195.000000
1.126000 -195.000000
1.127000 -170.000000
1.128000 -150.000000
1.129000 -121.000000
1.130000 -72.000000
1.131000 -38.000000
1.132000 -8.000000
1.133000 1.000000
1.134000 1.000000
1.135000 20.000000
1.136000 30.000000
1.137000 40.000000
1.138000 83.000000
1.139000 98.000000
1.140000 108.000000
1.141000 103.000000
1.142000 93.000000
1.143000 103.000000
1.144000 88.000000
1.145000 88.000000
1.146000 103.000000
1.147000 113.000000
1.148000 123.000000
1.149000 123.000000
1.150000 113.000000
1.151000 98.000000
1.152000 118.000000
1.153000 98.000000
1.154000 103.000000
1.155000 127.000000
1.156000 123.000000
1.157000 118.000000
1.158000 132.000000
1.159000 123.000000
1.160000 98.000000
1.161000 108.000000
1.162000 123.000000
1.163000 123.000000
1.164000 127.000000
1.165000 127.000000
1.166000 127.000000
1.167000 118.000000
1.168000 123.000000
1.169000 118.000000
1.170000 118.000000
1.171000 118.000000
1.172000 118.000000
1.173000 142.000000
1.174000 142.000000
1.175000 113.000000
1.176000 118.000000
1.177000 113.000000
1.178000 108.000000
1.179000 118.000000
1.180000 132.000000
1.181000 132.000000
1.182000 142.000000
1.183000 137.000000
1.184000 123.000000
1.185000 108.000000
1.186000 118.000000
1.187000 123.000000
1.188000 137.000000
1.189000 147.000000
1.190000 147.000000
1.191000 147.000000
1.192000 137.000000
1.193000 118.000000
1.194000 127.000000
1.195000 132.000000
1.196000 137.000000
1.197000 147.000000
1.198000 152.000000
1.199000 152.000000
1.200000 137.000000
1.201000 123.000000
1.202000 127.000000
1.203000 137.000000
1.204000 142.000000
1.205000 147.000000
1.206000 152.000000
1.207000 152.000000
1.208000 162.000000
1.209000 157.000000
1.210000 142.000000
1.211000 147.000000
1.212000 157.000000
1.213000 166.000000
1.214000 176.000000
1.215000 166.000000
1.216000 171.000000
1.217000 176.000000
1.218000 162.000000
1.219000 157.000000
1.220000 166.000000
1.221000 176.000000
1.222000 182.000000
1.223000 202.000000
1.224000 206.000000
1.225000 202.000000
1.226000 197.000000
1.227000 187.000000
1.228000 187.000000
1.229000 211.000000
1.230000 216.000000
1.231000 226.000000
1.232000 226.000000
1.233000 211.000000
1.234000 216.000000
1.235000 216.000000
1.236000 206.000000
1.237000 216.000000
1.238000 231.000000
1.239000 231.000000
1.240000 250.000000
1.241000 246.000000
1.242000 236.000000
1.243000 216.000000
1.244000 221.000000
1.245000 216.000000
1.246000 226.000000
1.247000 246.000000
1.248000 250.000000
1.249000 255.000000
1.250000 246.000000
1.251000 241.000000
1.252000 231.000000
1.253000 221.000000
1.254000 221.000000
1.255000 246.000000
1.256000 246.000000
1.257000 236.000000
1.258000 231.000000
1.259000 221.000000
1.260000 202.000000
1.261000 197.000000
1.262000 192.000000
1.263000 187.000000
1.264000 197.000000
1.265000 197.000000
1.266000 197.000000
1.267000 167.000000
1.268000 148.000000
1.269000 158.000000
1.270000 153.000000
1.271000 153.000000
1.272000 158.000000
1.273000 148.000000
1.274000 143.000000
1.275000 158.000000
1.276000 128.000000
1.277000 119.000000
1.278000 119.000000
1.279000 109.000000
1.280000 119.000000
1.281000 138.000000
1.282000 124.000000
1.283000 124.000000
1.284000 119.000000
1.285000 104.000000
1.286000 109.000000
1.287000 104.000000
1.288000 114.000000
1.289000 124.000000
1.290000 114.000000
1.291000 114.000000
1.292000 109.000000
1.293000 99.000000
1.294000 94.000000
1.295000 104.000000
1.296000 104.000000
1.297000 104.000000
1.298000 119.000000
1.299000 128.000000
1.300000 109.000000
1.301000 104.000000
1.302000 89.000000
1.303000 89.000000
1.304000 104.000000
1.305000 109.000000
1.306000 109.000000
1.307000 109.000000
1.308000 104.000000
1.309000 99.000000
1.310000 99.000000
1.311000 99.000000
1.312000 89.000000
1.313000 94.000000
1.314000 119.000000
1.315000 119.000000
1.316000 109.000000
1.317000 94.000000
1.318000 99.000000
1.319000 94.000000
1.320000 94.000000
1.321000 94.000000
1.322000 109.000000
1.323000 124.000000
1.324000 119.000000
1.325000 109.000000
1.326000 104.000000
1.327000 89.000000
1.328000 89.000000
1.329000 109.000000
1.330000 109.000000
1.331000 119.000000
1.332000 124.000000
1.333000 124.000000
1.334000 114.000000
1.335000 94.000000
1.336000 94.000000
1.337000 99.000000
1.338000 109.000000
1.339000 114.000000
1.340000 133.000000
1.341000 128.000000
1.342000 114.000000
1.343000 114.000000
1.344000 109.000000
1.345000 109.000000
1.346000 124.000000
1.347000 128.000000
1.348000 133.000000
1.349000 133.000000
1.350000 128.000000
1.351000 114.000000
1.352000 109.000000
1.353000 109.000000
1.354000 119.000000
1.355000 124.000000
1.356000 143.000000
1.357000 138.000000
1.358000 133.000000
1.359000 124.000000
1.360000 119.000000
1.361000 109.000000
1.362000 109.000000
1.363000 129.000000
1.364000 144.000000
1.365000 134.000000
1.366000 120.000000
1.367000 120.000000
1.368000 115.000000
1.369000 120.000000
1.370000 120.000000
1.371000 125.000000
1.372000 139.000000
1.373000 149.000000
1.374000 139.000000
1.375000 134.000000
1.376000 120.000000
1.377000 110.000000
1.378000 115.000000
1.379000 115.000000
1.380000 115.000000
1.381000 139.000000
1.382000 139.000000
1.383000 134.000000
1.384000 125.000000
1.385000 120.000000
1.386000 115.000000
1.387000 120.000000
1.388000 129.000000
1.389000 134.000000
1.390000 139.000000
1.391000 144.000000
1.392000 120.000000
1.393000 110.000000
1.394000 110.000000
1.395000 105.000000
1.396000 129.000000
1.397000 129.000000
1.398000 125.000000
1.399000 134.000000
1.400000 125.000000
1.401000 120.000000
1.402000 110.000000
1.403000 110.000000
1.404000 125.000000
1.405000 125.000000
1.406000 134.000000
1.407000 134.000000
1.408000 120.000000
1.409000 110.000000
1.410000 111.000000
1.411000 106.000000
1.412000 106.000000
1.413000 86.000000
1.414000 96.000000
1.415000 106.000000
1.416000 96.000000
1.417000 96.000000
1.418000 116.000000
1.419000 101.000000
1.420000 86.000000
1.421000 106.000000
1.422000 86.000000
1.423000 77.000000
1.424000 91.000000
1.425000 96.000000
1.426000 111.000000
1.427000 106.000000
1.428000 91.000000
1.429000 96.000000
1.430000 77.000000
1.431000 81.000000
1.432000 91.000000
1.433000 101.000000
1.434000 111.000000
1.435000 106.000000
1.436000 106.000000
1.437000 96.000000
1.438000 77.000000
1.439000 72.000000
1.440000 86.000000
1.441000 81.000000
1.442000 101.000000
1.443000 116.000000
1.444000 111.000000
1.445000 111.000000
1.446000 106.000000
1.447000 91.000000
1.448000 96.000000
1.449000 96.000000
1.450000 111.000000
1.451000 135.000000
1.452000 125.000000
1.453000 111.000000
1.454000 116.000000
1.455000 106.000000
1.456000 116.000000
1.457000 125.000000
1.458000 135.000000
1.459000 145.000000
1.460000 140.000000
1.461000 140.000000
1.462000 135.000000
1.463000 116.000000
1.464000 106.000000
1.465000 101.000000
1.466000 130.000000
1.467000 160.000000
1.468000 164.000000
1.469000 160.000000
1.470000 150.000000
1.471000 150.000000
1.472000 150.000000
1.473000 135.000000
1.474000 135.000000
1.475000 140.000000
1.476000 164.000000
1.477000 160.000000
1.478000 150.000000
1.479000 135.000000
1.480000 121.000000
1.481000 116.000000
1.482000 116.000000
1.483000 101.000000
1.484000 86.000000
1.485000 96.000000
1.486000 96.000000
1.487000 86.000000
1.488000 86.000000
1.489000 77.000000
1.490000 86.000000
1.491000 96.000000
1.492000 106.000000
1.493000 96.000000
1.494000 96.000000
1.495000 106.000000
1.496000 81.000000
1.497000 77.000000
1.498000 86.000000
1.499000 86.000000
1.500000 96.000000
1.501000 111.000000
1.502000 96.000000
1.503000 81.000000
1.504000 86.000000
1.505000 77.000000
1.506000 77.000000
1.507000 77.000000
1.508000 81.000000
1.509000 96.000000
1.510000 91.000000
1.511000 86.000000
1.512000 77.000000
1.513000 67.000000
1.514000 77.000000
1.515000 72.000000
1.516000 81.000000
1.517000 86.000000
1.518000 96.000000
1.519000 91.000000
1.520000 86.000000
1.521000 77.000000
1.522000 57.000000
1.523000 67.000000
1.524000 81.000000
1.525000 91.000000
1.526000 96.000000
1.527000 96.000000
1.528000 91.000000
1.529000 86.000000
1.530000 77.000000
1.531000 62.000000
1.532000 77.000000
1.533000 91.000000
1.534000 96.000000
1.535000 96.000000
1.536000 91.000000
1.537000 86.000000
1.538000 77.000000
1.539000 77.000000
1.540000 77.000000
1.541000 72.000000
1.542000 86.000000
1.543000 106.000000
1.544000 101.000000
1.545000 91.000000
1.546000 77.000000
1.547000 67.000000
1.548000 77.000000
1.549000 77.000000
1.550000 86.000000
1.551000 97.000000
1.552000 87.000000
1.553000 63.000000
1.554000 58.000000
1.555000 68.000000
1.556000 78.000000
1.557000 87.000000
1.558000 102.000000
1.559000 126.000000
1.560000 136.000000
1.561000 156.000000
1.562000 185.000000
1.563000 200.000000
1.564000 239.000000
1.565000 287.000000
1.566000 312.000000
1.567000 346.000000
1.568000 370.000000
1.569000 351.000000
1.570000 326.000000
1.571000 312.000000
1.572000 326.000000
1.573000 322.000000
1.574000 322.000000
1.575000 287.000000
1.576000 258.000000
1.577000 224.000000
1.578000 165.000000
1.579000 131.000000
1.580000 92.000000
1.581000 53.000000
1.582000 19.000000
1.583000 0.000000
1.584000 -34.000000
1.585000 -68.000000
1.586000 -107.000000
1.587000 -146.000000
1.588000 -161.000000
1.589000 -165.000000
1.590000 -185.000000
1.591000 -190.000000
1.592000 -190.000000
1.593000 -185.000000
1.594000 -185.000000
1.595000 -195.000000
1.596000 -195.000000
1.597000 -170.000000
1.598000 -150.000000
1.599000 -121.000000
1.600000 -72.000000
1.601000 -38.000000
1.602000 -8.000000
1.603000 1.000000
1.604000 1.000000
1.605000 20.000000
1.606000 30.000000
1.607000 40.000000
1.608000 83.000000
1.609000 98.000000
1.610000 108.000000
1.611000 103.000000
1.612000 93.000000
1.613000 103.000000
1.614000 88.000000
1.615000 88.000000
1.616000 103.000000
1.617000 113.000000
1.618000 123.000000
1.619000 123.000000
1.620000 113.000000
1.621000 98.000000
1.622000 118.000000
1.623000 98.000000
1.624000 103.000000
1.625000 127.000000
1.626000 123.000000
1.627000 118.000000
1.628000 132.000000
1.629000 123.000000
1.630000 98.000000
1.631000 108.000000
1.632000 123.000000
1.633000 123.000000
1.634000 127.000000
1.635000 127.000000
1.636000 127.000000
1.637000 118.000000
1.638000 123.000000
1.639000 118.000000
1.640000 118.000000
1.641000 118.000000
1.642000 118.000000
1.643000 142.000000
1.644000 142.000000
1.645000 113.000000
1.646000 118.000000
1.647000 113.000000
1.648000 108.000000
1.649000 118.000000
1.650000 132.000000
1.651000 132.000000
1.652000 142.000000
1.653000 137.000000
1.654000 123.000000
1.655000 108.000000
1.656000 118.000000
1.657000 123.000000
1.658000 137.000000
1.659000 147.000000
1.660000 147.000000
1.661000 147.000000
1.662000 137.000000
1.663000 118.000000
1.664000 127.000000
1.665000 132.000000
1.666000 137.000000
1.667000 147.000000
1.668000 152.000000
1.669000 152.000000
1.670000 137.000000
1.671000 123.000000
1.672000 127.000000
1.673000 137.000000
1.674000 142.000000
1.675000 147.000000
1.676000 152.000000
1.677000 152.000000
1.678000 162.000000
1.679000 157.000000
1.680000 142.000000
1.681000 147.000000
1.682000 157.000000
1.683000 166.000000
1.684000 176.000000
1.685000 166.000000
1.686000 171.000000
1.687000 176.000000
1.688000 162.000000
1.689000 157.000000
1.690000 166.000000
1.691000 176.000000
1.692000 182.000000
1.693000 202.000000
1.694000 206.000000
1.695000 202.000000
1.696000 197.000000
1.697000 187.000000
1.698000 187.000000
1.699000 211.000000
1.700000 216.000000
1.701000 226.000000
1.702000 226.000000
1.703000 211.000000
1.704000 216.000000
1.705000 216.000000
1.706000 206.000000
1.707000 216.000000
1.708000 231.000000
1.709000 231.000000
1.710000 250.000000
1.711000 246.000000
1.712000 236.000000
1.713000 216.000000
1.714000 221.000000
1.715000 216.000000
1.716000 226.000000
1.717000 246.000000
1.718000 250.000000
1.719000 255.000000
1.720000 246.000000
1.721000 241.000000
1.722000 231.000000
1.723000 221.000000
1.724000 221.000000
1.725000 246.000000
1.726000 246.000000
1.727000 236.000000
1.728000 231.000000
1.729000 221.000000
1.730000 202.000000
1.731000 197.000000
1.732000 192.000000
1.733000 187.000000
1.734000 197.000000
1.735000 197.000000
1.736000 197.000000
1.737000 167.000000
1.738000 148.000000
1.739000 158.000000
1.740000 153.000000
1.741000 153.000000
1.742000 158.000000
1.743000 148.000000
1.744000 143.000000
1.745000 158.000000
1.746000 128.000000
1.747000 119.000000
1.748000 119.000000
1.749000 109.000000
1.750000 119.000000
1.751000 138.000000
1.752000 124.000000
1.753000 124.000000
1.754000 119.000000
1.755000 104.000000
1.756000 109.000000
1.757000 104.000000
1.758000 114.000000
1.759000 124.000000
1.760000 114.000000
1.761000 114.000000
1.762000 109.000000
1.763000 99.000000
1.764000 94.000000
1.765000 104.000000
1.766000 104.000000
1.767000 104.000000
1.768000 119.000000
1.769000 128.000000
1.770000 109.000000
1.771000 104.000000
1.772000 89.000000
1.773000 89.000000
1.774000 104.000000
1.775000 109.000000
1.776000 109.000000
1.777000 109.000000
1.778000 104.000000
1.779000 99.000000
1.780000 99.000000
1.781000 99.000000
1.782000 89.000000
1.783000 94.000000
1.784000 119.000000
1.785000 119.000000
1.786000 109.000000
1.787000 94.000000
1.788000 99.000000
1.789000 94.000000
1.790000 94.000000
1.791000 94.000000
1.792000 109.000000
1.793000 124.000000
1.794000 119.000000
1.795000 109.000000
1.796000 104.000000
1.797000 89.000000
1.798000 89.000000
1.799000 109.000000
1.800000 109.000000
1.801000 119.000000
1.802000 124.000000
1.803000 124.000000
1.804000 114.000000
1.805000 94.000000
1.806000 94.000000
1.807000 99.000000
1.808000 109.000000
1.809000 114.000000
1.810000 133.000000
1.811000 128.000000
1.812000 114.000000
1.813000 114.000000
1.814000 109.000000
1.815000 109.000000
1.816000 124.000000
1.817000 128.000000
1.818000 133.000000
1.819000 133.000000
1.820000 128.000000
1.821000 114.000000
1.822000 109.000000
1.823000 109.000000
1.824000 119.000000
1.825000 124.000000
1.826000 143.000000
1.827000 138.000000
1.828000 133.000000
1.829000 124.000000
1.830000 119.000000
1.831000 109.000000
1.832000 109.000000
1.833000 129.000000
1.834000 144.000000
1.835000 134.000000
1.836000 120.000000
1.837000 120.000000
1.838000 115.000000
1.839000 120.000000
1.840000 120.000000
1.841000 125.000000
1.842000 139.000000
1.843000 149.000000
1.844000 139.000000
1.845000 134.000000
1.846000 120.000000
1.847000 110.000000
1.848000 115.000000
1.849000 115.000000
1.850000 115.000000
1.851000 139.000000
1.852000 139.000000
1.853000 134.000000
1.854000 125.000000
1.855000 120.000000
1.856000 115.000000
1.857000 120.000000
1.858000 129.000000
1.859000 134.000000
1.860000 139.000000
1.861000 144.000000
1.862000 120.000000
1.863000 110.000000
1.864000 110.000000
1.865000 105.000000
1.866000 129.000000
1.867000 129.000000
1.868000 125.000000
1.869000 134.000000
1.870000 125.000000
1.871000 120.000000
1.872000 110.000000
1.873000 110.000000
1.874000 125.000000
1.875000 125.000000
1.876000 134.000000
1.877000 134.000000
1.878000 120.000000
1.879000 110.000000
1.880000 111.000000
1.881000 106.000000
1.882000 106.000000
1.883000 86.000000
1.884000 96.000000
1.885000 106.000000
1.886000 96.000000
1.887000 96.000000
1.888000 116.000000
1.889000 101.000000
1.890000 86.000000
1.891000 106.000000
1.892000 86.000000
1.893000 77.000000
1.894000 91.000000
1.895000 96.000000
1.896000 111.000000
1.897000 106.000000
1.898000 91.000000
1.899000 96.000000
1.900000 77.000000
1.901000 81.000000
1.902000 91.000000
1.903000 101.000000
1.904000 111.000000
1.905000 106.000000
1.906000 106.000000
1.907000 96.000000
1.908000 77.000000
1.909000 72.000000
1.910000 86.000000
1.911000 81.000000
1.912000 101.000000
1.913000 116.000000
1.914000 111.000000
1.915000 111.000000
1.916000 106.000000
1.917000 91.000000
1.918000 96.000000
1.919000 96.000000
1.920000 111.000000
1.921000 135.000000
1.922000 125.000000
1.923000 111.000000
1.924000 116.000000
1.925000 106.000000
1.926000 116.000000
1.927000 125.000000
1.928000 135.000000
1.929000 145.000000
1.930000 140.000000
1.931000 140.000000
1.932000 135.000000
1.933000 116.000000
1.934000 106.000000
1.935000 101.000000
1.936000 130.000000
1.937000 160.000000
1.938000 164.000000
1.939000 160.000000
1.940000 150.000000
1.941000 150.000000
1.942000 150.000000
1.943000 135.000000
1.944000 135.000000
1.945000 140.000000
1.946000 164.000000
1.947000 160.000000
1.948000 150.000000
1.949000 135.000000
1.950000 121.000000
1.951000 116.000000
1.952000 116.000000
1.953000 101.000000
1.954000 86.000000
1.955000 96.000000
1.956000 96.000000
1.957000 86.000000
1.958000 86.000000
1.959000 77.000000
1.960000 86.000000
1.961000 96.000000
1.962000 106.000000
1.963000 96.000000
1.964000 96.000000
1.965000 106.000000
1.966000 81.000000
1.967000 77.000000
1.968000 86.000000
1.969000 86.000000
1.970000 96.000000
1.971000 111.000000
1.972000 96.000000
1.973000 81.000000
1.974000 86.000000
1.975000 77.000000
1.976000 77.000000
1.977000 77.000000
1.978000 81.000000
1.979000 96.000000
1.980000 91.000000
1.981000 86.000000
1.982000 77.000000
1.983000 67.000000
1.984000 77.000000
1.985000 72.000000
1.986000 81.000000
1.987000 86.000000
1.988000 96.000000
1.989000 91.000000
1.990000 86.000000
1.991000 77.000000
1.992000 57.000000
1.993000 67.000000
1.994000 81.000000
1.995000 91.000000
1.996000 96.000000
1.997000 96.000000
1.998000 91.000000
1.999000 86.000000
2.000000 77.000000
2.001000 62.000000
2.002000 77.000000
2.003000 91.000000
2.004000 96.000000
2.005000 96.000000
2.006000 91.000000
2.007000 86.000000
2.008000 77.000000
2.009000 77.000000
2.010000 77.000000
2.011000 72.000000
2.012000 86.000000
2.013000 106.000000
2.014000 101.000000
2.015000 91.000000
2.016000 77.000000
2.017000 67.000000
2.018000 77.000000
2.019000 77.000000
2.020000 86.000000
2.021000 97.000000
2.022000 87.000000
2.023000 63.000000
2.024000 58.000000
2.025000 68.000000
2.026000 78.000000
2.027000 87.000000
2.028000 102.000000
2.029000 126.000000
2.030000 136.000000
2.031000 156.000000
2.032000 185.000000
2.033000 200.000000
2.034000 239.000000
2.035000 287.000000
2.036000 312.000000
2.037000 346.000000
2.038000 370.000000
2.039000 351.000000
2.040000 326.000000
2.041000 312.000000
2.042000 326.000000
2.043000 322.000000
2.044000 322.000000
2.045000 287.000000
2.046000 258.000000
2.047000 224.000000
2.048000 165.000000
2.049000 131.000000
2.050000 92.000000
2.051000 53.000000
2.052000 19.000000
2.053000 0.000000
2.054000 -34.000000
2.055000 -68.000000
2.056000 -107.000000
2.057000 -146.000000
2.058000 -161.000000
2.059000 -165.000000
2.060000 -185.000000
2.061000 -190.000000
2.062000 -190.000000
2.063000 -185.000000
2.064000 -185.000000
2.065000 -195.000000
2.066000 -195.000000
2.067000 -170.000000
2.068000 -150.000000
2.069000 -121.000000
2.070000 -72.000000
2.071000 -38.000000
2.072000 -8.000000
2.073000 1.000000
2.074000 1.000000
2.075000 20.000000
2.076000 30.000000
2.077000 40.000000
2.078000 83.000000
2.079000 98.000000
2.080000 108.000000
2.081000 103.000000
2.082000 93.000000
2.083000 103.000000
2.084000 88.000000
2.085000 88.000000
2.086000 103.000000
2.087000 113.000000
2.088000 123.000000
2.089000 123.000000
2.090000 113.000000
2.091000 98.000000
2.092000 118.000000
2.093000 98.000000
2.094000 103.000000
2.095000 127.000000
2.096000 123.000000
2.097000 118.000000
2.098000 132.000000
2.099000 123.000000
2.100000 98.000000
2.101000 108.000000
2.102000 123.000000
2.103000 123.000000
2.104000 127.000000
2.105000 127.000000
2.106000 127.000000
2.107000 118.000000
2.108000 123.000000
2.109000 118.000000
2.110000 118.000000
2.111000 118.000000
2.112000 118.000000
2.113000 142.000000
2.114000 142.000000
2.115000 113.000000
2.116000 118.000000
2.117000 113.000000
2.118000 108.000000
2.119000 118.000000
2.120000 132.000000
2.121000 132.000000
2.122000 142.000000
2.123000 137.000000
2.124000 123.000000
2.125000 108.000000
2.126000 118.000000
2.127000 123.000000
2.128000 137.000000
2.129000 147.000000
2.130000 147.000000
2.131000 147.000000
2.132000 137.000000
2.133000 118.000000
2.134000 127.000000
2.135000 132.000000
2.136000 137.000000
2.137000 147.000000
2.138000 152.000000
2.139000 152.000000
2.140000 137.000000
2.141000 123.000000
2.142000 127.000000
2.143000 137.000000
2.144000 142.000000
2.145000 147.000000
2.146000 152.000000
2.147000 152.000000
2.148000 162.000000
2.149000 157.000000
2.150000 142.000000
2.151000 147.000000
2.152000 157.000000
2.153000 166.000000
2.154000 176.000000
2.155000 166.000000
2.156000 171.000000
2.157000 176.000000
2.158000 162.000000
2.159000 157.000000
2.160000 166.000000
2.161000 176.000000
2.162000 182.000000
2.163000 202.000000
2.164000 206.000000
2.165000 202.000000
2.166000 197.000000
2.167000 187.000000
2.168000 187.000000
2.169000 211.000000
2.170000 216.000000
2.171000 226.000000
2.172000 226.000000
2.173000 211.000000
2.174000 216.000000
2.175000 216.000000
2.176000 206.000000
2.177000 216.000000
2.178000 231.000000
2.179000 231.000000
2.180000 250.000000
2.181000 246.000000
2.182000 236.000000
2.183000 216.000000
2.184000 221.000000
2.185000 216.000000
2.186000 226.000000
2.187000 246.000000
2.188000 250.000000
2.189000 255.000000
2.190000 246.000000
2.191000 241.000000
2.192000 231.000000
2.193000 221.000000
2.194000 221.000000
2.195000 246.000000
2.196000 246.000000
2.197000 236.000000
2.198000 231.000000
2.199000 221.000000
2.200000 202.000000
2.201000 197.000000
2.202000 192.000000
2.203000 187.000000
2.204000 197.000000
2.205000 197.000000
2.206000 197.000000
2.207000 167.000000
2.208000 148.000000
2.209000 158.000000
2.210000 153.000000
2.211000 153.000000
2.212000 158.000000
2.213000 148.000000
2.214000 143.000000
2.215000 158.000000
2.216000 128.000000
2.217000 119.000000
2.218000 119.000000
2.219000 109.000000
2.220000 119.000000
2.221000 138.000000
2.222000 124.000000
2.223000 124.000000
2.224000 119.000000
2.225000 104.000000
2.226000 109.000000
2.227000 104.000000
2.228000 114.000000
2.229000 124.000000
2.230000 114.000000
2.231000 114.000000
2.232000 109.000000
2.233000 99.000000
2.234000 94.000000
2.235000 104.000000
2.236000 104.000000
2.237000 104.000000
2.238000 119.000000
2.239000 128.000000
2.240000 109.000000
2.241000 104.000000
2.242000 89.000000
2.243000 89.000000
2.244000 104.000000
2.245000 109.000000
2.246000 109.000000
2.247000 109.000000
2.248000 104.000000
2.249000 99.000000
2.250000 99.000000
2.251000 99.000000
2.252000 89.000000
2.253000 94.000000
2.254000 119.000000
2.255000 119.000000
2.256000 109.000000
2.257000 94.000000
2.258000 99.000000
2.259000 94.000000
2.260000 94.000000
2.261000 94.000000
2.262000 109.000000
2.263000 124.000000
2.264000 119.000000
2.265000 109.000000
2.266000 104.000000
2.267000 89.000000
2.268000 89.000000
2.269000 109.000000
2.270000 109.000000
2.271000 119.000000
2.272000 124.000000
2.273000 124.000000
2.274000 114.000000
2.275000 94.000000
2.276000 94.000000
2.277000 99.000000
2.278000 109.000000
2.279000 114.000000
2.280000 133.000000
2.281000 128.000000
2.282000 114.000000
2.283000 114.000000
2.284000 109.000000
2.285000 109.000000
2.286000 124.000000
2.287000 128.000000
2.288000 133.000000
2.289000 133.000000
2.290000 128.000000
2.291000 114.000000
2.292000 109.000000
2.293000 109.000000
2.294000 119.000000
2.295000 124.000000
2.296000 143.000000
2.297000 138.000000
2.298000 133.000000
2.299000 124.000000
2.300000 119.000000
2.301000 109.000000
2.302000 109.000000
2.303000 129.000000
2.304000 144.000000
2.305000 134.000000
2.306000 120.000000
2.307000 120.000000
2.308000 115.000000
2.309000 120.000000
2.310000 120.000000
2.311000 125.000000
2.312000 139.000000
2.313000 149.000000
2.314000 139.000000
2.315000 134.000000
2.316000 120.000000
2.317000 110.000000
2.318000 115.000000
2.319000 115.000000
2.320000 115.000000
2.321000 139.000000
2.322000 139.000000
2.323000 134.000000
2.324000 125.000000
2.325000 120.000000
2.326000 115.000000
2.327000 120.000000
2.328000 129.000000
2.329000 134.000000
2.330000 139.000000
2.331000 144.000000
2.332000 120.000000
2.333000 110.000000
2.334000 110.000000
2.335000 105.000000
2.336000 129.000000
2.337000 129.000000
2.338000 125.000000
2.339000 134.000000
2.340000 125.000000
2.341000 120.000000
2.342000 110.000000
2.343000 110.000000
2.344000 125.000000
2.345000 125.000000
2.346000 134.000000
2.347000 134.000000
2.348000 120.000000
2.349000 110.000000
2.350000 111.000000
2.351000 106.000000
2.352000 106.000000
2.353000 86.000000
2.354000 96.000000
2.355000 106.000000
2.356000 96.000000
2.357000 96.000000
2.358000 116.000000
2.359000 101.000000
2.360000 86.000000
2.361000 106.000000
2.362000 86.000000
2.363000 77.000000
2.364000 91.000000
2.365000 96.000000
2.366000 111.000000
2.367000 106.000000
2.368000 91.000000
2.369000 96.000000
2.370000 77.000000
2.371000 81.000000
2.372000 91.000000
2.373000 101.000000
2.374000 111.000000
2.375000 106.000000
2.376000 106.000000
2.377000 96.000000
2.378000 77.000000
2.379000 72.000000
2.380000 86.000000
2.381000 81.000000
2.382000 101.000000
2.383000 116.000000
2.384000 111.000000
2.385000 111.000000
2.386000 106.000000
2.387000 91.000000
2.388000 96.000000
2.389000 96.000000
2.390000 111.000000
2.391000 135.000000
2.392000 125.000000
2.393000 111.000000
2.394000 116.000000
2.395000 106.000000
2.396000 116.000000
2.397000 125.000000
2.398000 135.000000
2.399000 145.000000
2.400000 140.000000
2.401000 140.000000
2.402000 135.000000
2.403000 116.000000
2.404000 106.000000
2.405000 101.000000
2.406000 130.000000
2.407000 160.000000
2.408000 164.000000
2.409000 160.000000
2.410000 150.000000
2.411000 150.000000
2.412000 150.000000
2.413000 135.000000
2.414000 135.000000
2.415000 140.000000
2.416000 164.000000
2.417000 160.000000
2.418000 150.000000
2.419000 135.000000
2.420000 121.000000
2.421000 116.000000
2.422000 116.000000
2.423000 101.000000
2.424000 86.000000
2.425000 96.000000
2.426000 96.000000
2.427000 86.000000
2.428000 86.000000
2.429000 77.000000
2.430000 86.000000
2.431000 96.000000
2.432000 106.000000
2.433000 96.000000
2.434000 96.000000
2.435000 106.000000
2.436000 81.000000
2.437000 77.000000
2.438000 86.000000
2.439000 86.000000
2.440000 96.000000
2.441000 111.000000
2.442000 96.000000
2.443000 81.000000
2.444000 86.000000
2.445000 77.000000
2.446000 77.000000
2.447000 77.000000
2.448000 81.000000
2.449000 96.000000
2.450000 91.000000
2.451000 86.000000
2.452000 77.000000
2.453000 67.000000
2.454000 77.000000
2.455000 72.000000
2.456000 81.000000
2.457000 86.000000
2.458000 96.000000
2.459000 91.000000
2.460000 86.000000
2.461000 77.000000
2.462000 57.000000
2.463000 67.000000
2.464000 81.000000
2.465000 91.000000
2.466000 96.000000
2.467000 96.000000
2.468000 91.000000
2.469000 86.000000
2.470000 77.000000
2.471000 62.000000
2.472000 77.000000
2.473000 91.000000
2.474000 96.000000
2.475000 96.000000
2.476000 91.000000
2.477000 86.000000
2.478000 77.000000
2.479000 77.000000
2.480000 77.000000
2.481000 72.000000
2.482000 86.000000
2.483000 106.000000
2.484000 101.000000
2.485000 91.000000
2.486000 77.000000
2.487000 67.000000
2.488000 77.000000
2.489000 77.000000
2.490000 86.000000
2.491000 97.000000
2.492000 87.000000
2.493000 63.000000
2.494000 58.000000
2.495000 68.000000
2.496000 78.000000
2.497000 87.000000
2.498000 102.000000
2.499000 126.000000
2.500000 136.000000
2.501000 156.000000
2.502000 185.000000
2.503000 200.000000
2.504000 239.000000
2.505000 287.000000
2.506000 312.000000
2.507000 346.000000
2.508000 370.000000
2.509000 351.000000
2.510000 326.000000
2.511000 312.000000
2.512000 326.000000
2.513000 322.000000
2.514000 322.000000
2.515000 287.000000
2.516000 258.000000
2.517000 224.000000
2.518000 165.000000
2.519000 131.000000
2.520000 92.000000
2.521000 53.000000
2.522000 19.000000
2.523000 0.000000
2.524000 -34.000000
2.525000 -68.000000
2.526000 -107.000000
2.527000 -146.000000
2.528000 -161.000000
2.529000 -165.000000
2.530000 -185.000000
2.531000 -190.000000
2.532000 -190.000000
2.533000 -185.000000
2.534000 -185.000000
2.535000 -195.000000
2.536000 -195.000000
2.537000 -170.000000
2.538000 -150.000000
2.539000 -121.000000
2.540000 -72.000000
2.541000 -38.000000
2.542000 -8.000000
2.543000 1.000000
2.544000 1.000000
2.545000 20.000000
2.546000 30.000000
2.547000 40.000000
2.548000 83.000000
2.549000 98.000000
2.550000 108.000000
2.551000 103.000000
2.552000 93.000000
2.553000 103.000000
2.554000 88.000000
2.555000 88.000000
2.556000 103.000000
2.557000 113.000000
2.558000 123.000000
2.559000 123.000000
2.560000 113.000000
2.561000 98.000000
2.562000 118.000000
2.563000 98.000000
2.564000 103.000000
2.565000 127.000000
2.566000 123.000000
2.567000 118.000000
2.568000 132.000000
2.569000 123.000000
2.570000 98.000000
2.571000 108.000000
2.572000 123.000000
2.573000 123.000000
2.574000 127.000000
2.575000 127.000000
2.576000 127.000000
2.577000 118.000000
2.578000 123.000000
2.579000 118.000000
2.580000 118.000000
2.581000 118.000000
2.582000 118.000000
2.583000 142.000000
2.584000 142.000000
2.585000 113.000000
2.586000 118.000000
2.587000 113.000000
2.588000 108.000000
2.589000 118.000000
2.590000 132.000000
2.591000 132.000000
2.592000 142.000000
2.593000 137.000000
2.594000 123.000000
2.595000 108.000000
2.596000 118.000000
2.597000 123.000000
2.598000 137.000000
2.599000 147.000000
2.600000 147.000000
2.601000 147.000000
2.602000 137.000000
2.603000 118.000000
2.604000 127.000000
2.605000 132.000000
2.606000 137.000000
2.607000 147.000000
2.608000 152.000000
2.609000 152.000000
2.610000 137.000000
2.611000 123.000000
2.612000 127.000000
2.613000 137.000000
2.614000 142.000000
2.615000 147.000000
2.616000 152.000000
2.617000 152.000000
2.618000 162.000000
2.619000 157.000000
2.620000 142.000000
2.621000 147.000000
2.622000 157.000000
2.623000 166.000000
2.624000 176.000000
2.625000 166.000000
2.626000 171.000000
2.627000 176.000000
2.628000 162.000000
2.629000 157.000000
2.630000 166.000000
2.631000 176.000000
2.632000 182.000000
2.633000 202.000000
2.634000 206.000000
2.635000 202.000000
2.636000 197.000000
2.637000 187.000000
2.638000 187.000000
2.639000 211.000000
2.640000 216.000000
2.641000 226.000000
2.642000 226.000000
2.643000 211.000000
2.644000 216.000000
2.645000 216.000000
2.646000 206.000000
2.647000 216.000000
2.648000 231.000000
2.649000 231.000000
2.650000 250.000000
2.651000 246.000000
2.652000 236.000000
2.653000 216.000000
2.654000 221.000000
2.655000 216.000000
2.656000 226.000000
2.657000 246.000000
2.658000 250.000000
2.659000 255.000000
2.660000 246.000000
2.661000 241.000000
2.662000 231.000000
2.663000 221.000000
2.664000 221.000000
2.665000 246.000000
2.666000 246.000000
2.667000 236.000000
2.668000 231.000000
2.669000 221.000000
2.670000 202.000000
2.671000 197.000000
2.672000 192.000000
2.673000 187.000000
2.674000 197.000000
2.675000 197.000000
2.676000 197.000000
2.677000 167.000000
2.678000 148.000000
2.679000 158.000000
2.680000 153.000000
2.681000 153.000000
2.682000 158.000000
2.683000 148.000000
2.684000 143.000000
2.685000 158.000000
2.686000 128.000000
2.687000 119.000000
2.688000 119.000000
2.689000 109.000000
2.690000 119.000000
2.691000 138.000000
2.692000 124.000000
2.693000 124.000000
2.694000 119.000000
2.695000 104.000000
2.696000 109.000000
2.697000 104.000000
2.698000 114.000000
2.699000 124.000000
2.700000 114.000000
2.701000 114.000000
2.702000 109.000000
2.703000 99.000000
2.704000 94.000000
2.705000 104.000000
2.706000 104.000000
2.707000 104.000000
2.708000 119.000000
2.709000 128.000000
2.710000 109.000000
2.711000 104.000000
2.712000 89.000000
2.713000 89.000000
2.714000 104.000000
2.715000 109.000000
2.716000 109.000000
2.717000 109.000000
2.718000 104.000000
2.719000 99.000000
2.720000 99.000000
2.721000 99.000000
2.722000 89.000000
2.723000 94.000000
2.724000 119.000000
2.725000 119.000000
2.726000 109.000000
2.727000 94.000000
2.728000 99.000000
2.729000 94.000000
2.730000 94.000000
2.731000 94.000000
2.732000 109.000000
2.733000 124.000000
2.734000 119.000000
2.735000 109.000000
2.736000 104.000000
2.737000 89.000000
2.738000 89.000000
2.739000 109.000000
2.740000 109.000000
2.741000 119.000000
2.742000 124.000000
2.743000 124.000000
2.744000 114.000000
2.745000 94.000000
2.746000 94.000000
2.747000 99.000000
2.748000 109.000000
2.749000 114.000000
2.750000 133.000000
2.751000 128.000000
2.752000 114.000000
2.753000 114.000000
2.754000 109.000000
2.755000 109.000000
2.756000 124.000000
2.757000 128.000000
2.758000 133.000000
2.759000 133.000000
2.760000 128.000000
2.761000 114.000000
2.762000 109.000000
2.763000 109.000000
2.764000 119.000000
2.765000 124.000000
2.766000 143.000000
2.767000 138.000000
2.768000 133.000000
2.769000 124.000000
2.770000 119.000000
2.771000 109.000000
2.772000 109.000000
2.773000 129.000000
2.774000 144.000000
2.775000 134.000000
2.776000 120.000000
2.777000 120.000000
2.778000 115.000000
2.779000 120.000000
2.780000 120.000000
2.781000 125.000000
2.782000 139.000000
2.783000 149.000000
2.784000 139.000000
2.785000 134.000000
2.786000 120.000000
2.787000 110.000000
2.788000 115.000000
2.789000 115.000000
2.790000 115.000000
2.791000 139.000000
2.792000 139.000000
2.793000 134.000000
2.794000 125.000000
2.795000 120.000000
2.796000 115.000000
2.797000 120.000000
2.798000 129.000000
2.799000 134.000000
2.800000 139.000000
2.801000 144.000000
2.802000 120.000000
2.803000 110.000000
2.804000 110.000000
2.805000 105.000000
2.806000 129.000000
2.807000 129.000000
2.808000 125.000000
2.809000 134.000000
2.810000 125.000000
2.811000 120.000000
2.812000 110.000000
2.813000 110.000000
2.814000 125.000000
2.815000 125.000000
2.816000 134.000000
2.817000 134.000000
2.818000 120.000000
2.819000 110.000000
2.820000 111.000000
2.821000 106.000000
2.822000 106.000000
2.823000 86.000000
2.824000 96.000000
2.825000 106.000000
2.826000 96.000000
2.827000 96.000000
2.828000 116.000000
2.829000 101.000000
2.830000 86.000000
2.831000 106.000000
2.832000 86.000000
2.833000 77.000000
2.834000 91.000000
2.835000 96.000000
2.836000 111.000000
2.837000 106.000000
2.838000 91.000000
2.839000 96.000000
2.840000 77.000000
2.841000 81.000000
2.842000 91.000000
2.843000 101.000000
2.844000 111.000000
2.845000 106.000000
2.846000 106.000000
2.847000 96.000000
2.848000 77.000000
2.849000 72.000000
2.850000 86.000000
2.851000 81.000000
2.852000 101.000000
2.853000 116.000000
2.854000 111.000000
2.855000 111.000000
2.856000 106.000000
2.857000 91.000000
2.858000 96.000000
2.859000 96.000000
2.860000 111.000000
2.861000 135.000000
2.862000 125.000000
2.863000 111.000000
2.864000 116.000000
2.865000 106.000000
2.866000 116.000000
2.867000 125.000000
2.868000 135.000000
2.869000 145.000000
2.870000 140.000000
2.871000 140.000000
2.872000 135.000000
2.873000 116.000000
2.874000 106.000000
2.875000 101.000000
2.876000 130.000000
2.877000 160.000000
2.878000 164.000000
2.879000 160.000000
2.880000 150.000000
2.881000 150.000000
2.882000 150.000000
2.883000 135.000000
2.884000 135.000000
2.885000 140.000000
2.886000 164.000000
2.887000 160.000000
2.888000 150.000000
2.889000 135.000000
2.890000 121.000000
2.891000 116.000000
2.892000 116.000000
2.893000 101.000000
2.894000 86.000000
2.895000 96.000000
2.896000 96.000000
2.897000 86.000000
2.898000 86.000000
2.899000 77.000000
2.900000 86.000000
2.901000 96.000000
2.902000 106.000000
2.903000 96.000000
2.904000 96.000000
2.905000 106.000000
2.906000 81.000000
2.907000 77.000000
2.908000 86.000000
2.909000 86.000000
2.910000 96.000000
2.911000 111.000000
2.912000 96.000000
2.913000 81.000000
2.914000 86.000000
2.915000 77.000000
2.916000 77.000000
2.917000 77.000000
2.918000 81.000000
2.919000 96.000000
2.920000 91.000000
2.921000 86.000000
2.922000 77.000000
2.923000 67.000000
2.924000 77.000000
2.925000 72.000000
2.926000 81.000000
2.927000 86.000000
2.928000 96.000000
2.929000 91.000000
2.930000 86.000000
2.931000 77.000000
2.932000 57.000000
2.933000 67.000000
2.934000 81.000000
2.935000 91.000000
2.936000 96.000000
2.937000 96.000000
2.938000 91.000000
2.939000 86.000000
2.940000 77.000000
2.941000 62.000000
2.942000 77.000000
2.943000 91.000000
2.944000 96.000000
2.945000 96.000000
2.946000 91.000000
2.947000 86.000000
2.948000 77.000000
2.949000 77.000000
2.950000 77.000000
2.951000 72.000000
2.952000 86.000000
2.953000 106.000000
2.954000 101.000000
2.955000 91.000000
2.956000 77.000000
2.957000 67.000000
2.958000 77.000000
2.959000 77.000000
2.960000 86.000000
2.961000 97.000000
2.962000 87.000000
2.963000 63.000000
2.964000 58.000000
2.965000 68.000000
2.966000 78.000000
2.967000 87.000000
2.968000 102.000000
2.969000 126.000000
2.970000 136.000000
2.971000 156.000000
2.972000 185.000000
2.973000 200.000000
2.974000 239.000000
2.975000 287.000000
2.976000 312.000000
2.977000 346.000000
2.978000 370.000000
2.979000 351.000000
2.980000 326.000000
2.981000 312.000000
2.982000 326.000000
2.983000 322.000000
2.984000 322.000000
2.985000 287.000000
2.986000 258.000000
2.987000 224.000000
2.988000 165.000000
2.989000 131.000000
2.990000 92.000000
2.991000 53.000000
2.992000 19.000000
2.993000 0.000000
2.994000 -34.000000
2.995000 -68.000000
2.996000 -107.000000
2.997000 -146.000000
2.998000 -161.000000
2.999000 -165.000000
3.000000 -185.000000
3.001000 -190.000000
3.002000 -190.000000
3.003000 -185.000000
3.004000 -185.000000
3.005000 -195.000000
3.006000 -195.000000
3.007000 -170.000000
3.008000 -150.000000
3.009000 -121.000000
3.010000 -72.000000
3.011000 -38.000000
3.012000 -8.000000
3.013000 1.000000
3.014000 1.000000
3.015000 20.000000
3.016000 30.000000
3.017000 40.000000
3.018000 83.000000
3.019000 98.000000
3.020000 108.000000
3.021000 103.000000
3.022000 93.000000
3.023000 103.000000
3.024000 88.000000
3.025000 88.000000
3.026000 103.000000
3.027000 113.000000
3.028000 123.000000
3.029000 123.000000
3.030000 113.000000
3.031000 98.000000
3.032000 118.000000
3.033000 98.000000
3.034000 103.000000
3.035000 127.000000
3.036000 123.000000
3.037000 118.000000
3.038000 132.000000
3.039000 123.000000
3.040000 98.000000
3.041000 108.000000
3.042000 123.000000
3.043000 123.000000
3.044000 127.000000
3.045000 127.000000
3.046000 127.000000
3.047000 118.000000
3.048000 123.000000
3.049000 118.000000
3.050000 118.000000
3.051000 118.000000
3.052000 118.000000
3.053000 142.000000
3.054000 142.000000
3.055000 113.000000
3.056000 118.000000
3.057000 113.000000
3.058000 108.000000
3.059000 118.000000
3.060000 132.000000
3.061000 132.000000
3.062000 142.000000
3.063000 137.000000
3.064000 123.000000
3.065000 108.000000
3.066000 118.000000
3.067000 123.000000
3.068000 137.000000
3.069000 147.000000
3.070000 147.000000
3.071000 147.000000
3.072000 137.000000
3.073000 118.000000
3.074000 127.000000
3.075000 132.000000
3.076000 137.000000
3.077000 147.000000
3.078000 152.000000
3.079000 152.000000
3.080000 137.000000
3.081000 123.000000
3.082000 127.000000
3.083000 137.000000
3.084000 142.000000
3.085000 147.000000
3.086000 152.000000
3.087000 152.000000
3.088000 162.000000
3.089000 157.000000
3.090000 142.000000
3.091000 147.000000
3.092000 157.000000
3.093000 166.000000
3.094000 176.000000
3.095000 166.000000
3.096000 171.000000
3.097000 176.000000
3.098000 162.000000
3.099000 157.000000
3.100000 166.000000
3.101000 176.000000
3.102000 182.000000
3.103000 202.000000
3.104000 206.000000
3.105000 202.000000
3.106000 197.000000
3.107000 187.000000
3.108000 187.000000
3.109000 211.000000
3.110000 216.000000
3.111000 226.000000
3.112000 226.000000
3.113000 211.000000
3.114000 216.000000
3.115000 216.000000
3.116000 206.000000
3.117000 216.000000
3.118000 231.000000
3.119000 231.000000
3.120000 250.000000
3.121000 246.000000
3.122000 236.000000
3.123000 216.000000
3.124000 221.000000
3.125000 216.000000
3.126000 226.000000
3.127000 246.000000
3.128000 250.000000
3.129000 255.000000
3.130000 246.000000
3.131000 241.000000
3.132000 231.000000
3.133000 221.000000
3.134000 221.000000
3.135000 246.000000
3.136000 246.000000
3.137000 236.000000
3.138000 231.000000
3.139000 221.000000
3.140000 202.000000
3.141000 197.000000
3.142000 192.000000
3.143000 187.000000
3.144000 197.000000
3.145000 197.000000
3.146000 197.000000
3.147000 167.000000
3.148000 148.000000
3.149000 158.000000
3.150000 153.000000
3.151000 153.000000
3.152000 158.000000
3.153000 148.000000
3.154000 143.000000
3.155000 158.000000
3.156000 128.000000
3.157000 119.000000
3.158000 119.000000
3.159000 109.000000
3.160000 119.000000
3.161000 138.000000
3.162000 124.000000
3.163000 124.000000
3.164000 119.000000
3.165000 104.000000
3.166000 109.000000
3.167000 104.000000
3.168000 114.000000
3.169000 124.000000
3.170000 114.000000
3.171000 114.000000
3.172000 109.000000
3.173000 99.000000
3.174000 94.000000
3.175000 104.000000
3.176000 104.000000
3.177000 104.000000
3.178000 119.000000
3.179000 128.000000
3.180000 109.000000
3.181000 104.000000
3.182000 89.000000
3.183000 89.000000
3.184000 104.000000
3.185000 109.000000
3.186000 109.000000
3.187000 109.000000
3.188000 104.000000
3.189000 99.000000
3.190000 99.000000
3.191000 99.000000
3.192000 89.000000
3.193000 94.000000
3.194000 119.000000
3.195000 119.000000
3.196000 109.000000
3.197000 94.000000
3.198000 99.000000
3.199000 94.000000
3.200000 94.000000
3.201000 94.000000
3.202000 109.000000
3.203000 124.000000
3.204000 119.000000
3.205000 109.000000
3.206000 104.000000
3.207000 89.000000
3.208000 89.000000
3.209000 109.000000
3.210000 109.000000
3.211000 119.000000
3.212000 124.000000
3.213000 124.000000
3.214000 114.000000
3.215000 94.000000
3.216000 94.000000
3.217000 99.000000
3.218000 109.000000
3.219000 114.000000
3.220000 133.000000
3.221000 128.000000
3.222000 114.000000
3.223000 114.000000
3.224000 109.000000
3.225000 109.000000
3.226000 124.000000
3.227000 128.000000
3.228000 133.000000
3.229000 133.000000
3.230000 128.000000
3.231000 114.000000
3.232000 109.000000
3.233000 109.000000
3.234000 119.000000
3.235000 124.000000
3.236000 143.000000
3.237000 138.000000
3.238000 133.000000
3.239000 124.000000
3.240000 119.000000
3.241000 109.000000
3.242000 109.000000
3.243000 129.000000
3.244000 144.000000
3.245000 134.000000
3.246000 120.000000
3.247000 120.000000
3.248000 115.000000
3.249000 120.000000
3.250000 120.000000
3.251000 125.000000
3.252000 139.000000
3.253000 149.000000
3.254000 139.000000
3.255000 134.000000
3.256000 120.000000
3.257000 110.000000
3.258000 115.000000
3.259000 115.000000
3.260000 115.000000
3.261000 139.000000
3.262000 139.000000
3.263000 134.000000
3.264000 125.000000
3.265000 120.000000
3.266000 115.000000
3.267000 120.000000
3.268000 129.000000
3.269000 134.000000
3.270000 139.000000
3.271000 144.000000
3.272000 120.000000
3.273000 110.000000
3.274000 110.000000
3.275000 105.000000
3.276000 129.000000
3.277000 129.000000
3.278000 125.000000
3.279000 134.000000
3.280000 125.000000
3.281000 120.000000
3.282000 110.000000
3.283000 110.000000
3.284000 125.000000
3.285000 125.000000
3.286000 134.000000
3.287000 134.000000
3.288000 120.000000
3.289000 110.000000
3.290000 111.000000
3.291000 106.000000
3.292000 106.000000
3.293000 86.000000
3.294000 96.000000
3.295000 106.000000
3.296000 96.000000
3.297000 96.000000
3.298000 116.000000
3.299000 101.000000
3.300000 86.000000
3.301000 106.000000
3.302000 86.000000
3.303000 77.000000
3.304000 91.000000
3.305000 96.000000
3.306000 111.000000
3.307000 106.000000
3.308000 91.000000
3.309000 96.000000
3.310000 77.000000
3.311000 81.000000
3.312000 91.000000
3.313000 101.000000
3.314000 111.000000
3.315000 106.000000
3.316000 106.000000
3.317000 96.000000
3.318000 77.000000
3.319000 72.000000
3.320000 86.000000
3.321000 81.000000
3.322000 101.000000
3.323000 116.000000
3.324000 111.000000
3.325000 111.000000
3.326000 106.000000
3.327000 91.000000
3.328000 96.000000
3.329000 96.000000
3.330000 111.000000
3.331000 135.000000
3.332000 125.000000
3.333000 111.000000
3.334000 116.000000
3.335000 106.000000
3.336000 116.000000
3.337000 125.000000
3.338000 135.000000
3.339000 145.000000
3.340000 140.000000
3.341000 140.000000
3.342000 135.000000
3.343000 116.000000
3.344000 106.000000
3.345000 101.000000
3.346000 130.000000
3.347000 160.000000
3.348000 164.000000
3.349000 160.000000
3.350000 150.000000
3.351000 150.000000
3.352000 150.000000
3.353000 135.000000
3.354000 135.000000
3.355000 140.000000
3.356000 164.000000
3.357000 160.000000
3.358000 150.000000
3.359000 135.000000
3.360000 121.000000
3.361000 116.000000
3.362000 116.000000
3.363000 101.000000
3.364000 86.000000
3.365000 96.000000
3.366000 96.000000
3.367000 86.000000
3.368000 86.000000
3.369000 77.000000
3.370000 86.000000
3.371000 96.000000
3.372000 106.000000
3.373000 96.000000
3.374000 96.000000
3.375000 106.000000
3.376000 81.000000
3.377000 77.000000
3.378000 86.000000
3.379000 86.000000
3.380000 96.000000
3.381000 111.000000
3.382000 96.000000
3.383000 81.000000
3.384000 86.000000
3.385000 77.000000
3.386000 77.000000
3.387000 77.000000
3.388000 81.000000
3.389000 96.000000
3.390000 91.000000
3.391000 86.000000
3.392000 77.000000
3.393000 67.000000
3.394000 77.000000
3.395000 72.000000
3.396000 81.000000
3.397000 86.000000
3.398000 96.000000
3.399000 91.000000
3.400000 86.000000
3.401000 77.000000
3.402000 57.000000
3.403000 67.000000
3.404000 81.000000
3.405000 91.000000
3.406000 96.000000
3.407000 96.000000
3.408000 91.000000
3.409000 86.000000
3.410000 77.000000
3.411000 62.000000
3.412000 77.000000
3.413000 91.000000
3.414000 96.000000
3.415000 96.000000
3.416000 91.000000
3.417000 86.000000
3.418000 77.000000
3.419000 77.000000
3.420000 77.000000
3.421000 72.000000
3.422000 86.000000
3.423000 106.000000
3.424000 101.000000
3.425000 91.000000
3.426000 77.000000
3.427000 67.000000
3.428000 77.000000
3.429000 77.000000
3.430000 86.000000
3.431000 97.000000
3.432000 87.000000
3.433000 63.000000
3.434000 58.000000
3.435000 68.000000
3.436000 78.000000
3.437000 87.000000
3.438000 102.000000
3.439000 126.000000
3.440000 136.000000
3.441000 156.000000
3.442000 185.000000
3.443000 200.000000
3.444000 239.000000
3.445000 287.000000
3.446000 312.000000
3.447000 346.000000
3.448000 370.000000
3.449000 351.000000
3.450000 326.000000
3.451000 312.000000
3.452000 326.000000
3.453000 322.000000
3.454000 322.000000
3.455000 287.000000
3.456000 258.000000
3.457000 224.000000
3.458000 165.000000
3.459000 131.000000
3.460000 92.000000
3.461000 53.000000
3.462000 19.000000
3.463000 0.000000
3.464000 -34.000000
3.465000 -68.000000
3.466000 -107.000000
3.467000 -146.000000
3.468000 -161.000000
3.469000 -165.000000
3.470000 -185.000000
3.471000 -190.000000
3.472000 -190.000000
3.473000 -185.000000
3.474000 -185.000000
3.475000 -195.000000
3.476000 -195.000000
3.477000 -170.000000
3.478000 -150.000000
3.479000 -121.000000
3.480000 -72.000000
3.481000 -38.000000
3.482000 -8.000000
3.483000 1.000000
3.484000 1.000000
3.485000 20.000000
3.486000 30.000000
3.487000 40.000000
3.488000 83.000000
3.489000 98.000000
3.490000 108.000000
3.491000 103.000000
3.492000 93.000000
3.493000 103.000000
3.494000 88.000000
3.495000 88.000000
3.496000 103.000000
3.497000 113.000000
3.498000 123.000000
3.499000 123.000000
3.500000 113.000000
3.501000 98.000000
3.502000 118.000000
3.503000 98.000000
3.504000 103.000000
3.505000 127.000000
3.506000 123.000000
3.507000 118.000000
3.508000 132.000000
3.509000 123.000000
3.510000 98.000000
3.511000 108.000000
3.512000 123.000000
3.513000 123.000000
3.514000 127.000000
3.515000 127.000000
3.516000 127.000000
3.517000 118.000000
3.518000 123.000000
3.519000 118.000000
3.520000 118.000000
3.521000 118.000000
3.522000 118.000000
3.523000 142.000000
3.524000 142.000000
3.525000 113.000000
3.526000 118.000000
3.527000 113.000000
3.528000 108.000000
3.529000 118.000000
3.530000 132.000000
3.531000 132.000000
3.532000 142.000000
3.533000 137.000000
3.534000 123.000000
3.535000 108.000000
3.536000 118.000000
3.537000 123.000000
3.538000 137.000000
3.539000 147.000000
3.540000 147.000000
3.541000 147.000000
3.542000 137.000000
3.543000 118.000000
3.544000 127.000000
3.545000 132.000000
3.546000 137.000000
3.547000 147.000000
3.548000 152.000000
3.549000 152.000000
3.550000 137.000000
3.551000 123.000000
3.552000 127.000000
3.553000 137.000000
3.554000 142.000000
3.555000 147.000000
3.556000 152.000000
3.557000 152.000000
3.558000 162.000000
3.559000 157.000000
3.560000 142.000000
3.561000 147.000000
3.562000 157.000000
3.563000 166.000000
3.564000 176.000000
3.565000 166.000000
3.566000 171.000000
3.567000 176.000000
3.568000 162.000000
3.569000 157.000000
3.570000 166.000000
3.571000 176.000000
3.572000 182.000000
3.573000 202.000000
3.574000 206.000000
3.575000 202.000000
3.576000 197.000000
3.577000 187.000000
3.578000 187.000000
3.579000 211.000000
3.580000 216.000000
3.581000 226.000000
3.582000 226.000000
3.583000 211.000000
3.584000 216.000000
3.585000 216.000000
3.586000 206.000000
3.587000 216.000000
3.588000 231.000000
3.589000 231.000000
3.590000 250.000000
3.591000 246.000000
3.592000 236.000000
3.593000 216.000000
3.594000 221.000000
3.595000 216.000000
3.596000 226.000000
3.597000 246.000000
3.598000 250.000000
3.599000 255.000000
3.600000 246.000000
3.601000 241.000000
3.602000 231.000000
3.603000 221.000000
3.604000 221.000000
3.605000 246.000000
3.606000 246.000000
3.607000 236.000000
3.608000 231.000000
3.609000 221.000000
3.610000 202.000000
3.611000 197.000000
3.612000 192.000000
3.613000 187.000000
3.614000 197.000000
3.615000 197.000000
3.616000 197.000000
3.617000 167.000000
3.618000 148.000000
3.619000 158.000000
3.620000 153.000000
3.621000 153.000000
3.622000 158.000000
3.623000 148.000000
3.624000 143.000000
3.625000 158.000000
3.626000 128.000000
3.627000 119.000000
3.628000 119.000000
3.629000 109.000000
3.630000 119.000000
3.631000 138.000000
3.632000 124.000000
3.633000 124.000000
3.634000 119.000000
3.635000 104.000000
3.636000 109.000000
3.637000 104.000000
3.638000 114.000000
3.639000 124.000000
3.640000 114.000000
3.641000 114.000000
3.642000 109.000000
3.643000 99.000000
3.644000 94.000000
3.645000 104.000000
3.646000 104.000000
3.647000 104.000000
3.648000 119.000000
3.649000 128.000000
3.650000 109.000000
3.651000 104.000000
3.652000 89.000000
3.653000 89.000000
3.654000 104.000000
3.655000 109.000000
3.656000 109.000000
3.657000 109.000000
3.658000 104.000000
3.659000 99.000000
3.660000 99.000000
3.661000 99.000000
3.662000 89.000000
3.663000 94.000000
3.664000 119.000000
3.665000 119.000000
3.666000 109.000000
3.667000 94.000000
3.668000 99.000000
3.669000 94.000000
3.670000 94.000000
3.671000 94.000000
3.672000 109.000000
3.673000 124.000000
3.674000 119.000000
3.675000 109.000000
3.676000 104.000000
3.677000 89.000000
3.678000 89.000000
3.679000 109.000000
3.680000 109.000000
3.681000 119.000000
3.682000 124.000000
3.683000 124.000000
3.684000 114.000000
3.685000 94.000000
3.686000 94.000000
3.687000 99.000000
3.688000 109.000000
3.689000 114.000000
3.690000 133.000000
3.691000 128.000000
3.692000 114.000000
3.693000 114.000000
3.694000 109.000000
3.695000 109.000000
3.696000 124.000000
3.697000 128.000000
3.698000 133.000000
3.699000 133.000000
3.700000 128.000000
3.701000 114.000000
3.702000 109.000000
3.703000 109.000000
3.704000 119.000000
3.705000 124.000000
3.706000 143.000000
3.707000 138.000000
3.708000 133.000000
3.709000 124.000000
3.710000 119.000000
3.711000 109.000000
3.712000 109.000000
3.713000 129.000000
3.714000 144.000000
3.715000 134.000000
3.716000 120.000000
3.717000 120.000000
3.718000 115.000000
3.719000 120.000000
3.720000 120.000000
3.721000 125.000000
3.722000 139.000000
3.723000 149.000000
3.724000 139.000000
3.725000 134.000000
3.726000 120.000000
3.727000 110.000000
3.728000 115.000000
3.729000 115.000000
3.730000 115.000000
3.731000 139.000000
3.732000 139.000000
3.733000 134.000000
3.734000 125.000000
3.735000 120.000000
3.736000 115.000000
3.737000 120.000000
3.738000 129.000000
3.739000 134.000000
3.740000 139.000000
3.741000 144.000000
3.742000 120.000000
3.743000 110.000000
3.744000 110.000000
3.745000 105.000000
3.746000 129.000000
3.747000 129.000000
3.748000 125.000000
3.749000 134.000000
3.750000 125.000000
3.751000 120.000000
3.752000 110.000000
3.753000 110.000000
3.754000 125.000000
3.755000 125.000000
3.756000 134.000000
3.757000 134.000000
3.758000 120.000000
3.759000 110.000000
3.760000 111.000000
3.761000 106.000000
3.762000 106.000000
3.763000 86.000000
3.764000 96.000000
3.765000 106.000000
3.766000 96.000000
3.767000 96.000000
3.768000 116.000000
3.769000 101.000000
3.770000 86.000000
3.771000 106.000000
3.772000 86.000000
3.773000 77.000000
3.774000 91.000000
3.775000 96.000000
3.776000 111.000000
3.777000 106.000000
3.778000 91.000000
3.779000 96.000000
3.780000 77.000000
3.781000 81.000000
3.782000 91.000000
3.783000 101.000000
3.784000 111.000000
3.785000 106.000000
3.786000 106.000000
3.787000 96.000000
3.788000 77.000000
3.789000 72.000000
3.790000 86.000000
3.791000 81.000000
3.792000 101.000000
3.793000 116.000000
3.794000 111.000000
3.795000 111.000000
3.796000 106.000000
3.797000 91.000000
3.798000 96.000000
3.799000 96.000000
3.800000 111.000000
3.801000 135.000000
3.802000 125.000000
3.803000 111.000000
3.804000 116.000000
3.805000 106.000000
3.806000 116.000000
3.807000 125.000000
3.808000 135.000000
3.809000 145.000000
3.810000 140.000000
3.811000 140.000000
3.812000 135.000000
3.813000 116.000000
3.814000 106.000000
3.815000 101.000000
3.816000 130.000000
3.817000 160.000000
3.818000 164.000000
3.819000 160.000000
3.820000 150.000000
3.821000 150.000000
3.822000 150.000000
3.823000 135.000000
3.824000 135.000000
3.825000 140.000000
3.826000 164.000000
3.827000 160.000000
3.828000 150.000000
3.829000 135.000000
3.830000 121.000000
3.831000 116.000000
3.832000 116.000000
3.833000 101.000000
3.834000 86.000000
3.835000 96.000000
3.836000 96.000000
3.837000 86.000000
3.838000 86.000000
3.839000 77.000000
3.840000 86.000000
3.841000 96.000000
3.842000 106.000000
3.843000 96.000000
3.844000 96.000000
3.845000 106.000000
3.846000 81.000000
3.847000 77.000000
3.848000 86.000000
3.849000 86.000000
3.850000 96.000000
3.851000 111.000000
3.852000 96.000000
3.853000 81.000000
3.854000 86.000000
3.855000 77.000000
3.856000 77.000000
3.857000 77.000000
3.858000 81.000000
3.859000 96.000000
3.860000 91.000000
3.861000 86.000000
3.862000 77.000000
3.863000 67.000000
3.864000 77.000000
3.865000 72.000000
3.866000 81.000000
3.867000 86.000000
3.868000 96.000000
3.869000 91.000000
3.870000 86.000000
3.871000 77.000000
3.872000 57.000000
3.873000 67.000000
3.874000 81.000000
3.875000 91.000000
3.876000 96.000000
3.877000 96.000000
3.878000 91.000000
3.879000 86.000000
3.880000 77.000000
3.881000 62.000000
3.882000 77.000000
3.883000 91.000000
3.884000 96.000000
3.885000 96.000000
3.886000 91.000000
3.887000 86.000000
3.888000 77.000000
3.889000 77.000000
3.890000 77.000000
3.891000 72.000000
3.892000 86.000000
3.893000 106.000000
3.894000 101.000000
3.895000 91.000000
3.896000 77.000000
3.897000 67.000000
3.898000 77.000000
3.899000 77.000000
3.900000 86.000000
3.901000 97.000000
3.902000 87.000000
3.903000 63.000000
3.904000 58.000000
3.905000 68.000000
3.906000 78.000000
3.907000 87.000000
3.908000 102.000000
3.909000 126.000000
3.910000 136.000000
3.911000 156.000000
3.912000 185.000000
3.913000 200.000000
3.914000 239.000000
3.915000 287.000000
3.916000 312.000000
3.917000 346.000000
3.918000 370.000000
3.919000 351.000000
3.920000 326.000000
3.921000 312.000000
3.922000 326.000000
3.923000 322.000000
3.924000 322.000000
3.925000 287.000000
3.926000 258.000000
3.927000 224.000000
3.928000 165.000000
3.929000 131.000000
3.930000 92.000000
3.931000 53.000000
3.932000 19.000000
3.933000 0.000000
3.934000 -34.000000
3.935000 -68.000000
3.936000 -107.000000
3.937000 -146.000000
3.938000 -161.000000
3.939000 -165.000000
3.940000 -185.000000
3.941000 -190.000000
3.942000 -190.000000
3.943000 -185.000000
3.944000 -185.000000
3.945000 -195.000000
3.946000 -195.000000
3.947000 -170.000000
3.948000 -150.000000
3.949000 -121.000000
3.950000 -72.000000
3.951000 -38.000000
3.952000 -8.000000
3.953000 1.000000
3.954000 1.000000
3.955000 20.000000
3.956000 30.000000
3.957000 40.000000
3.958000 83.000000
3.959000 98.000000
3.960000 108.000000
3.961000 103.000000
3.962000 93.000000
3.963000 103.000000
3.964000 88.000000
3.965000 88.000000
3.966000 103.000000
3.967000 113.000000
3.968000 123.000000
3.969000 123.000000
3.970000 113.000000
3.971000 98.000000
3.972000 118.000000
3.973000 98.000000
3.974000 103.000000
3.975000 127.000000
3.976000 123.000000
3.977000 118.000000
3.978000 132.000000
3.979000 123.000000
3.980000 98.000000
3.981000 108.000000
3.982000 123.000000
3.983000 123.000000
3.984000 127.000000
3.985000 127.000000
3.986000 127.000000
3.987000 118.000000
3.988000 123.000000
3.989000 118.000000
3.990000 118.000000
3.991000 118.000000
3.992000 118.000000
3.993000 142.000000
3.994000 142.000000
3.995000 113.000000
3.996000 118.000000
3.997000 113.000000
3.998000 108.000000
3.999000 118.000000
4.000000 132.000000
4.001000 132.000000
4.002000 142.000000
4.003000 137.000000
4.004000 123.000000
4.005000 108.000000
4.006000 118.000000
4.007000 123.000000
4.008000 137.000000
4.009000 147.000000
4.010000 147.000000
4.011000 147.000000
4.012000 137.000000
4.013000 118.000000
4.014000 127.000000
4.015000 132.000000
4.016000 137.000000
4.017000 147.000000
4.018000 152.000000
4.019000 152.000000
4.020000 137.000000
4.021000 123.000000
4.022000 127.000000
4.023000 137.000000
4.024000 142.000000
4.025000 147.000000
4.026000 152.000000
4.027000 152.000000
4.028000 162.000000
4.029000 157.000000
4.030000 142.000000
4.031000 147.000000
4.032000 157.000000
4.033000 166.000000
4.034000 176.000000
4.035000 166.000000
4.036000 171.000000
4.037000 176.000000
4.038000 162.000000
4.039000 157.000000
4.040000 166.000000
4.041000 176.000000
4.042000 182.000000
4.043000 202.000000
4.044000 206.000000
4.045000 202.000000
4.046000 197.000000
4.047000 187.000000
4.048000 187.000000
4.049000 211.000000
4.050000 216.000000
4.051000 226.000000
4.052000 226.000000
4.053000 211.000000
4.054000 216.000000
4.055000 216.000000
4.056000 206.000000
4.057000 216.000000
4.058000 231.000000
4.059000 231.000000
4.060000 250.000000
4.061000 246.000000
4.062000 236.000000
4.063000 216.000000
4.064000 221.000000
4.065000 216.000000
4.066000 226.000000
4.067000 246.000000
4.068000 250.000000
4.069000 255.000000
4.070000 246.000000
4.071000 241.000000
4.072000 231.000000
4.073000 221.000000
4.074000 221.000000
4.075000 246.000000
4.076000 246.000000
4.077000 236.000000
4.078000 231.000000
4.079000 221.000000
4.080000 202.000000
4.081000 197.000000
4.082000 192.000000
4.083000 187.000000
4.084000 197.000000
4.085000 197.000000
4.086000 197.000000
4.087000 167.000000
4.088000 148.000000
4.089000 158.000000
4.090000 153.000000
4.091000 153.000000
4.092000 158.000000
4.093000 148.000000
4.094000 143.000000
4.095000 158.000000
4.096000 128.000000
4.097000 119.000000
4.098000 119.000000
4.099000 109.000000
4.100000 119.000000
4.101000 138.000000
4.102000 124.000000
4.103000 124.000000
4.104000 119.000000
4.105000 104.000000
4.106000 109.000000
4.107000 104.000000
4.108000 114.000000
4.109000 124.000000
4.110000 114.000000
4.111000 114.000000
4.112000 109.000000
4.113000 99.000000
4.114000 94.000000
4.115000 104.000000
4.116000 104.000000
4.117000 104.000000
4.118000 119.000000
4.119000 128.000000
4.120000 109.000000
4.121000 104.000000
4.122000 89.000000
4.123000 89.000000
4.124000 104.000000
4.125000 109.000000
4.126000 109.000000
4.127000 109.000000
4.128000 104.000000
4.129000 99.000000
4.130000 99.000000
4.131000 99.000000
4.132000 89.000000
4.133000 94.000000
4.134000 119.000000
4.135000 119.000000
4.136000 109.000000
4.137000 94.000000
4.138000 99.000000
4.139000 94.000000
4.140000 94.000000
4.141000 94.000000
4.142000 109.000000
4.143000 124.000000
4.144000 119.000000
4.145000 109.000000
4.146000 104.000000
4.147000 89.000000
4.148000 89.000000
4.149000 109.000000
4.150000 109.000000
4.151000 119.000000
4.152000 124.000000
4.153000 124.000000
4.154000 114.000000
4.155000 94.000000
4.156000 94.000000
4.157000 99.000000
4.158000 109.000000
4.159000 114.000000
4.160000 133.000000
4.161000 128.000000
4.162000 114.000000
4.163000 114.000000
4.164000 109.000000
4.165000 109.000000
4.166000 124.000000
4.167000 128.000000
4.168000 133.000000
4.169000 133.000000
4.170000 128.000000
4.171000 114.000000
4.172000 109.000000
4.173000 109.000000
4.174000 119.000000
4.175000 124.000000
4.176000 143.000000
4.177000 138.000000
4.178000 133.000000
4.179000 124.000000
4.180000 119.000000
4.181000 109.000000
4.182000 109.000000
4.183000 129.000000
4.184000 144.000000
4.185000 134.000000
4.186000 120.000000
4.187000 120.000000
4.188000 115.000000
4.189000 120.000000
4.190000 120.000000
4.191000 125.000000
4.192000 139.000000
4.193000 149.000000
4.194000 139.000000
4.195000 134.000000
4.196000 120.000000
4.197000 110.000000
4.198000 115.000000
4.199000 115.000000
4.200000 115.000000
4.201000 139.000000
4.202000 139.000000
4.203000 134.000000
4.204000 125.000000
4.205000 120.000000
4.206000 115.000000
4.207000 120.000000
4.208000 129.000000
4.209000 134.000000
4.210000 139.000000
4.211000 144.000000
4.212000 120.000000
4.213000 110.000000
4.214000 110.000000
4.215000 105.000000
4.216000 129.000000
4.217000 129.000000
4.218000 125.000000
4.219000 134.000000
4.220000 125.000000
4.221000 120.000000
4.222000 110.000000
4.223000 110.000000
4.224000 125.000000
4.225000 125.000000
4.226000 134.000000
4.227000 134.000000
4.228000 120.000000
4.229000 110.000000
4.230000 111.000000
4.231000 106.000000
4.232000 106.000000
4.233000 86.000000
4.234000 96.000000
4.235000 106.000000
4.236000 96.000000
4.237000 96.000000
4.238000 116.000000
4.239000 101.000000
4.240000 86.000000
4.241000 106.000000
4.242000 86.000000
4.243000 77.000000
4.244000 91.000000
4.245000 96.000000
4.246000 111.000000
4.247000 106.000000
4.248000 91.000000
4.249000 96.000000
4.250000 77.000000
4.251000 81.000000
4.252000 91.000000
4.253000 101.000000
4.254000 111.000000
4.255000 106.000000
4.256000 106.000000
4.257000 96.000000
4.258000 77.000000
4.259000 72.000000
4.260000 86.000000
4.261000 81.000000
4.262000 101.000000
4.263000 116.000000
4.264000 111.000000
4.265000 111.000000
4.266000 106.000000
4.267000 91.000000
4.268000 96.000000
4.269000 96.000000
4.270000 111.000000
4.271000 135.000000
4.272000 125.000000
4.273000 111.000000
4.274000 116.000000
4.275000 106.000000
4.276000 116.000000
4.277000 125.000000
4.278000 135.000000
4.279000 145.000000
4.280000 140.000000
4.281000 140.000000
4.282000 135.000000
4.283000 116.000000
4.284000 106.000000
4.285000 101.000000
4.286000 130.000000
4.287000 160.000000
4.288000 164.000000
4.289000 160.000000
4.290000 150.000000
4.291000 150.000000
4.292000 150.000000
4.293000 135.000000
4.294000 135.000000
4.295000 140.000000
4.296000 164.000000
4.297000 160.000000
4.298000 150.000000
4.299000 135.000000
4.300000 121.000000
4.301000 116.000000
4.302000 116.000000
4.303000 101.000000
4.304000 86.000000
4.305000 96.000000
4.306000 96.000000
4.307000 86.000000
4.308000 86.000000
4.309000 77.000000
4.310000 86.000000
4.311000 96.000000
4.312000 106.000000
4.313000 96.000000
4.314000 96.000000
4.315000 106.000000
4.316000 81.000000
4.317000 77.000000
4.318000 86.000000
4.319000 86.000000
4.320000 96.000000
4.321000 111.000000
4.322000 96.000000
4.323000 81.000000
4.324000 86.000000
4.325000 77.000000
4.326000 77.000000
4.327000 77.000000
4.328000 81.000000
4.329000 96.000000
4.330000 91.000000
4.331000 86.000000
4.332000 77.000000
4.333000 67.000000
4.334000 77.000000
4.335000 72.000000
4.336000 81.000000
4.337000 86.000000
4.338000 96.000000
4.339000 91.000000
4.340000 86.000000
4.341000 77.000000
4.342000 57.000000
4.343000 67.000000
4.344000 81.000000
4.345000 91.000000
4.346000 96.000000
4.347000 96.000000
4.348000 91.000000
4.349000 86.000000
4.350000 77.000000
4.351000 62.000000
4.352000 77.000000
4.353000 91.000000
4.354000 96.000000
4.355000 96.000000
4.356000 91.000000
4.357000 86.000000
4.358000 77.000000
4.359000 77.000000
4.360000 77.000000
4.361000 72.000000
4.362000 86.000000
4.363000 106.000000
4.364000 101.000000
4.365000 91.000000
4.366000 77.000000
4.367000 67.000000
4.368000 77.000000
4.369000 77.000000
4.370000 86.000000
4.371000 97.000000
4.372000 87.000000
4.373000 63.000000
4.374000 58.000000
4.375000 68.000000
4.376000 78.000000
4.377000 87.000000
4.378000 102.000000
4.379000 126.000000
4.380000 136.000000
4.381000 156.000000
4.382000 185.000000
4.383000 200.000000
4.384000 239.000000
4.385000 287.000000
4.386000 312.000000
4.387000 346.000000
4.388000 370.000000
4.389000 351.000000
4.390000 326.000000
4.391000 312.000000
4.392000 326.000000
4.393000 322.000000
4.394000 322.000000
4.395000 287.000000
4.396000 258.000000
4.397000 224.000000
4.398000 165.000000
4.399000 131.000000
4.400000 92.000000
4.401000 53.000000
4.402000 19.000000
4.403000 0.000000
4.404000 -34.000000
4.405000 -68.000000
4.406000 -107.000000
4.407000 -146.000000
4.408000 -161.000000
4.409000 -165.000000
4.410000 -185.000000
4.411000 -190.000000
4.412000 -190.000000
4.413000 -185.000000
4.414000 -185.000000
4.415000 -195.000000
4.416000 -195.000000
4.417000 -170.000000
4.418000 -150.000000
4.419000 -121.000000
4.420000 -72.000000
4.421000 -38.000000
4.422000 -8.000000
4.423000 1.000000
4.424000 1.000000
4.425000 20.000000
4.426000 30.000000
4.427000 40.000000
4.428000 83.000000
4.429000 98.000000
4.430000 108.000000
4.431000 103.000000
4.432000 93.000000
4.433000 103.000000
4.434000 88.000000
4.435000 88.000000
4.436000 103.000000
4.437000 113.000000
4.438000 123.000000
4.439000 123.000000
4.440000 113.000000
4.441000 98.000000
4.442000 118.000000
4.443000 98.000000
4.444000 103.000000
4.445000 127.000000
4.446000 123.000000
4.447000 118.000000
4.448000 132.000000
4.449000 123.000000
4.450000 98.000000
4.451000 108.000000
4.452000 123.000000
4.453000 123.000000
4.454000 127.000000
4.455000 127.000000
4.456000 127.000000
4.457000 118.000000
4.458000 123.000000
4.459000 118.000000
4.460000 118.000000
4.461000 118.000000
4.462000 118.000000
4.463000 142.000000
4.464000 142.000000
4.465000 113.000000
4.466000 118.000000
4.467000 113.000000
4.468000 108.000000
4.469000 118.000000
4.470000 132.000000
4.471000 132.000000
4.472000 142.000000
4.473000 137.000000
4.474000 123.000000
4.475000 108.000000
4.476000 118.000000
4.477000 123.000000
4.478000 137.000000
4.479000 147.000000
4.480000 147.000000
4.481000 147.000000
4.482000 137.000000
4.483000 118.000000
4.484000 127.000000
4.485000 132.000000
4.486000 137.000000
4.487000 147.000000
4.488000 152.000000
4.489000 152.000000
4.490000 137.000000
4.491000 123.000000
4.492000 127.000000
4.493000 137.000000
4.494000 142.000000
4.495000 147.000000
4.496000 152.000000
4.497000 152.000000
4.498000 162.000000
4.499000 157.000000
4.500000 142.000000
4.501000 147.000000
4.502000 157.000000
4.503000 166.000000
4.504000 176.000000
4.505000 166.000000
4.506000 171.000000
4.507000 176.000000
4.508000 162.000000
4.509000 157.000000
4.510000 166.000000
4.511000 176.000000
4.512000 182.000000
4.513000 202.000000
4.514000 206.000000
4.515000 202.000000
4.516000 197.000000
4.517000 187.000000
4.518000 187.000000
4.519000 211.000000
4.520000 216.000000
4.521000 226.000000
4.522000 226.000000
4.523000 211.000000
4.524000 216.000000
4.525000 216.000000
4.526000 206.000000
4.527000 216.000000
4.528000 231.000000
4.529000 231.000000
4.530000 250.000000
4.531000 246.000000
4.532000 236.000000
4.533000 216.000000
4.534000 221.000000
4.535000 216.000000
4.536000 226.000000
4.537000 246.000000
4.538000 250.000000
4.539000 255.000000
4.540000 246.000000
4.541000 241.000000
4.542000 231.000000
4.543000 221.000000
4.544000 221.000000
4.545000 246.000000
4.546000 246.000000
4.547000 236.000000
4.548000 231.000000
4.549000 221.000000
4.550000 202.000000
4.551000 197.000000
4.552000 192.000000
4.553000 187.000000
4.554000 197.000000
4.555000 197.000000
4.556000 197.000000
4.557000 167.000000
4.558000 148.000000
4.559000 158.000000
4.560000 153.000000
4.561000 153.000000
4.562000 158.000000
4.563000 148.000000
4.564000 143.000000
4.565000 158.000000
4.566000 128.000000
4.567000 119.000000
4.568000 119.000000
4.569000 109.000000
4.570000 119.000000
4.571000 138.000000
4.572000 124.000000
4.573000 124.000000
4.574000 119.000000
4.575000 104.000000
4.576000 109.000000
4.577000 104.000000
4.578000 114.000000
4.579000 124.000000
4.580000 114.000000
4.581000 114.000000
4.582000 109.000000
4.583000 99.000000
4.584000 94.000000
4.585000 104.000000
4.586000 104.000000
4.587000 104.000000
4.588000 119.000000
4.589000 128.000000
4.590000 109.000000
4.591000 104.000000
4.592000 89.000000
4.593000 89.000000
4.594000 104.000000
4.595000 109.000000
4.596000 109.000000
4.597000 109.000000
4.598000 104.000000
4.599000 99.000000
4.600000 99.000000
4.601000 99.000000
4.602000 89.000000
4.603000 94.000000
4.604000 119.000000
4.605000 119.000000
4.606000 109.000000
4.607000 94.000000
4.608000 99.000000
4.609000 94.000000
4.610000 94.000000
4.611000 94.000000
4.612000 109.000000
4.613000 124.000000
4.614000 119.000000
4.615000 109.000000
4.616000 104.000000
4.617000 89.000000
4.618000 89.000000
4.619000 109.000000
4.620000 109.000000
4.621000 119.000000
4.622000 124.000000
4.623000 124.000000
4.624000 114.000000
4.625000 94.000000
4.626000 94.000000
4.627000 99.000000
4.628000 109.000000
4.629000 114.000000
4.630000 133.000000
4.631000 128.000000
4.632000 114.000000
4.633000 114.000000
4.634000 109.000000
4.635000 109.000000
4.636000 124.000000
4.637000 128.000000
4.638000 133.000000
4.639000 133.000000
4.640000 128.000000
4.641000 114.000000
4.642000 109.000000
4.643000 109.000000
4.644000 119.000000
4.645000 124.000000
4.646000 143.000000
4.647000 138.000000
4.648000 133.000000
4.649000 124.000000
4.650000 119.000000
4.651000 109.000000
4.652000 109.000000
4.653000 129.000000
4.654000 144.000000
4.655000 134.000000
4.656000 120.000000
4.657000 120.000000
4.658000 115.000000
4.659000 120.000000
4.660000 120.000000
4.661000 125.000000
4.662000 139.000000
4.663000 149.000000
4.664000 139.000000
4.665000 134.000000
4.666000 120.000000
4.667000 110.000000
4.668000 115.000000
4.669000 115.000000
4.670000 115.000000
4.671000 139.000000
4.672000 139.000000
4.673000 134.000000
4.674000 125.000000
4.675000 120.000000
4.676000 115.000000
4.677000 120.000000
4.678000 129.000000
4.679000 134.000000
4.680000 139.000000
4.681000 144.000000
4.682000 120.000000
4.683000 110.000000
4.684000 110.000000
4.685000 105.000000
4.686000 129.000000
4.687000 129.000000
4.688000 125.000000
4.689000 134.000000
4.690000 125.000000
4.691000 120.000000
4.692000 110.000000
4.693000 110.000000
4.694000 125.000000
4.695000 125.000000
4.696000 134.000000
4.697000 134.000000
4.698000 120.000000
4.699000 110.000000
4.700000 111.000000
4.701000 106.000000
4.702000 106.000000
4.703000 86.000000
4.704000 96.000000
4.705000 106.000000
4.706000 96.000000
4.707000 96.000000
4.708000 116.000000
4.709000 101.000000
4.710000 86.000000
4.711000 106.000000
4.712000 86.000000
4.713000 77.000000
4.714000 91.000000
4.715000 96.000000
4.716000 111.000000
4.717000 106.000000
4.718000 91.000000
4.719000 96.000000
4.720000 77.000000
4.721000 81.000000
4.722000 91.000000
4.723000 101.000000
4.724000 111.000000
4.725000 106.000000
4.726000 106.000000
4.727000 96.000000
4.728000 77.000000
4.729000 72.000000
4.730000 86.000000
4.731000 81.000000
4.732000 101.000000
4.733000 116.000000
4.734000 111.000000
4.735000 111.000000
4.736000 106.000000
4.737000 91.000000
4.738000 96.000000
4.739000 96.000000
4.740000 111.000000
4.741000 135.000000
4.742000 125.000000
4.743000 111.000000
4.744000 116.000000
4.745000 106.000000
4.746000 116.000000
4.747000 125.000000
4.748000 135.000000
4.749000 145.000000
4.750000 140.000000
4.751000 140.000000
4.752000 135.000000
4.753000 116.000000
4.754000 106.000000
4.755000 101.000000
4.756000 130.000000
4.757000 160.000000
4.758000 164.000000
4.759000 160.000000
4.760000 150.000000
4.761000 150.000000
4.762000 150.000000
4.763000 135.000000
4.764000 135.000000
4.765000 140.000000
4.766000 164.000000
4.767000 160.000000
4.768000 150.000000
4.769000 135.000000
4.770000 121.000000
4.771000 116.000000
4.772000 116.000000
4.773000 101.000000
4.774000 86.000000
4.775000 96.000000
4.776000 96.000000
4.777000 86.000000
4.778000 86.000000
4.779000 77.000000
4.780000 86.000000
4.781000 96.000000
4.782000 106.000000
4.783000 96.000000
4.784000 96.000000
4.785000 106.000000
4.786000 81.000000
4.787000 77.000000
4.788000 86.000000
4.789000 86.000000
4.790000 96.000000
4.791000 111.000000
4.792000 96.000000
4.793000 81.000000
4.794000 86.000000
4.795000 77.000000
4.796000 77.000000
4.797000 77.000000
4.798000 81.000000
4.799000 96.000000
4.800000 91.000000
4.801000 86.000000
4.802000 77.000000
4.803000 67.000000
4.804000 77.000000
4.805000 72.000000
4.806000 81.000000
4.807000 86.000000
4.808000 96.000000
4.809000 91.000000
4.810000 86.000000
4.811000 77.000000
4.812000 57.000000
4.813000 67.000000
4.814000 81.000000
4.815000 91.000000
4.816000 96.000000
4.817000 96.000000
4.818000 91.000000
4.819000 86.000000
4.820000 77.000000
4.821000 62.000000
4.822000 77.000000
4.823000 91.000000
4.824000 96.000000
4.825000 96.000000
4.826000 91.000000
4.827000 86.000000
4.828000 77.000000
4.829000 77.000000
4.830000 77.000000
4.831000 72.000000
4.832000 86.000000
4.833000 106.000000
4.834000 101.000000
4.835000 91.000000
4.836000 77.000000
4.837000 67.000000
4.838000 77.000000
4.839000 77.000000
4.840000 86.000000
4.841000 97.000000
4.842000 87.000000
4.843000 63.000000
4.844000 58.000000
4.845000 68.000000
4.846000 78.000000
4.847000 87.000000
4.848000 102.000000
4.849000 126.000000
4.850000 136.000000
4.851000 156.000000
4.852000 185.000000
4.853000 200.000000
4.854000 239.000000
4.855000 287.000000
4.856000 312.000000
4.857000 346.000000
4.858000 370.000000
4.859000 351.000000
4.860000 326.000000
4.861000 312.000000
4.862000 326.000000
4.863000 322.000000
4.864000 322.000000
4.865000 287.000000
4.866000 258.000000
4.867000 224.000000
4.868000 165.000000
4.869000 131.000000
4.870000 92.000000
4.871000 53.000000
4.872000 19.000000
4.873000 0.000000
4.874000 -34.000000
4.875000 -68.000000
4.876000 -107.000000
4.877000 -146.000000
4.878000 -161.000000
4.879000 -165.000000
4.880000 -185.000000
4.881000 -190.000000
4.882000 -190.000000
4.883000 -185.000000
4.884000 -185.000000
4.885000 -195.000000
4.886000 -195.000000
4.887000 -170.000000
4.888000 -150.000000
4.889000 -121.000000
4.890000 -72.000000
4.891000 -38.000000
4.892000 -8.000000
4.893000 1.000000
4.894000 1.000000
4.895000 20.000000
4.896000 30.000000
4.897000 40.000000
4.898000 83.000000
4.899000 98.000000
4.900000 108.000000
4.901000 103.000000
4.902000 93.000000
4.903000 103.000000
4.904000 88.000000
4.905000 88.000000
4.906000 103.000000
4.907000 113.000000
4.908000 123.000000
4.909000 123.000000
4.910000 113.000000
4.911000 98.000000
4.912000 118.000000
4.913000 98.000000
4.914000 103.000000
4.915000 127.000000
4.916000 123.000000
4.917000 118.000000
4.918000 132.000000
4.919000 123.000000
4.920000 98.000000
4.921000 108.000000
4.922000 123.000000
4.923000 123.000000
4.924000 127.000000
4.925000 127.000000
4.926000 127.000000
4.927000 118.000000
4.928000 123.000000
4.929000 118.000000
4.930000 118.000000
4.931000 118.000000
4.932000 118.000000
4.933000 142.000000
4.934000 142.000000
4.935000 113.000000
4.936000 118.000000
4.937000 113.000000
4.938000 108.000000
4.939000 118.000000
4.940000 132.000000
4.941000 132.000000
4.942000 142.000000
4.943000 137.000000
4.944000 123.000000
4.945000 108.000000
4.946000 118.000000
4.947000 123.000000
4.948000 137.000000
4.949000 147.000000
4.950000 147.000000
4.951000 147.000000
4.952000 137.000000
4.953000 118.000000
4.954000 127.000000
4.955000 132.000000
4.956000 137.000000
4.957000 147.000000
4.958000 152.000000
4.959000 152.000000
4.960000 137.000000
4.961000 123.000000
4.962000 127.000000
4.963000 137.000000
4.964000 142.000000
4.965000 147.000000
4.966000 152.000000
4.967000 152.000000
4.968000 162.000000
4.969000 157.000000
4.970000 142.000000
4.971000 147.000000
4.972000 157.000000
4.973000 166.000000
4.974000 176.000000
4.975000 166.000000
4.976000 171.000000
4.977000 176.000000
4.978000 162.000000
4.979000 157.000000
4.980000 166.000000
4.981000 176.000000
4.982000 182.000000
4.983000 202.000000
4.984000 206.000000
4.985000 202.000000
4.986000 197.000000
4.987000 187.000000
4.988000 187.000000
4.989000 211.000000
4.990000 216.000000
4.991000 226.000000
4.992000 226.000000
4.993000 211.000000
4.994000 216.000000
4.995000 216.000000
4.996000 206.000000
4.997000 216.000000
4.998000 231.000000
4.999000 231.000000
